BEGIN IONS
TITLE=Spectrum2610 scans: 5353,
PEPMASS=710.38513 296037.37500
CHARGE=2+
RTINSECONDS=3574
SCANS=5353
207.080 4.48688
210.138 8.52694
210.892 2.81608
212.075 4.45702
214.127 15.4192
215.174 18.0238
218.853 13.7022
221.138 16.5991
222.738 27.2088
224.326 9.56491
226.186 21.8721
227.201 19.7326
229.049 24.978
229.990 7.55599
231.342 48.7643
232.147 450.411
233.132 57.852
235.092 3.90734
237.271 6.21414
240.060 20.1159
244.280 24.3823
245.791 34.8008
247.087 21.6054
247.809 10.7955
249.118 34.3945
253.083 24.8309
258.084 23.5536
261.220 23.0667
263.081 30.4977
265.177 13.917
267.244 8.52939
268.258 17.529
269.282 2.59813
275.065 14.2495
276.065 27.0925
277.120 31.7992
280.453 11.4253
281.248 2.71709
283.051 4.98623
284.304 23.6275
285.277 20.8625
287.793 2.88391
288.447 23.4775
290.180 24.1417
292.481 10.7607
297.174 18.5382
298.190 27.0667
300.038 6.64057
301.121 81.7275
302.275 6.94399
303.229 19.7514
305.400 5.182
306.131 17.4215
307.067 7.25248
308.346 7.0588
310.598 51.1893
311.337 22.5128
313.136 7.67839
315.163 32.3897
317.057 6.60563
319.330 13.927
322.919 5.80652
327.030 19.4572
328.161 46.3204
329.950 9.37912
331.362 87.9261
332.233 14.8589
333.305 74.9939
334.227 10.7573
338.107 16.9271
339.087 1.98981
341.051 7.87615
342.281 27.4389
343.322 18.5266
344.059 9.32926
345.242 468.638
346.301 110.184
347.158 42.3704
349.326 9.25257
350.458 12.2763
352.865 9.84789
354.269 19.5352
357.537 8.27936
359.227 140.175
360.087 28.925
360.825 16.7369
361.503 2.42387
363.232 23.2083
364.292 2.45896
365.390 8.63982
367.231 10.9096
368.042 11.7982
369.047 8.53081
370.202 27.1982
371.258 4.12441
372.168 13.7451
373.292 22.079
374.196 25.6963
377.084 130.884
381.215 20.7568
382.277 3.03343
383.279 18.2003
385.337 31.2621
386.089 3.38691
387.663 10.4754
388.786 8.53382
390.060 7.37525
390.847 7.68122
392.401 9.33238
393.429 3.90744
394.258 3.16852
395.054 3.90089
398.304 18.3473
399.325 15.8568
400.160 24.1315
401.111 36.2701
401.908 8.21451
403.413 46.5244
404.607 16.262
406.104 12.991
410.245 9.16185
412.361 23.7573
413.073 18.8339
414.116 11.1571
415.213 22.8729
416.639 57.9205
418.212 2.67428
420.371 73.7903
421.278 27.7718
422.057 3.68459
422.905 2.18087
423.810 6.07263
426.215 8.32136
427.133 6.76785
428.142 52.8322
429.045 12.1948
430.341 135.029
431.360 23.7363
432.845 5.16698
434.338 28.1976
435.965 9.17686
438.211 58.9614
440.099 42.9555
441.300 32.5709
442.710 39.9366
443.461 8.89039
444.249 8.61919
445.268 33.2153
448.054 382.362
449.214 142.953
450.255 36.5855
451.212 6.58814
452.337 41.3728
453.218 3.76074
454.133 3.67891
456.381 26.7298
457.158 56.1892
458.333 708.387
459.322 120.945
460.395 92.2994
464.287 4.76663
465.205 10.7023
466.150 14.3165
468.035 33.0127
469.124 57.9889
470.280 15.2675
471.302 5.17586
472.388 22.9583
474.294 45.1234
476.269 44.4771
477.457 193.439
478.360 118.41
478.983 51.7722
479.949 29.5528
481.539 13.6591
482.744 24.4878
483.434 21.5123
484.202 4.98418
485.200 224.504
487.071 1334.74
488.297 67.4595
489.387 35.2523
490.378 18.6464
491.072 15.45
493.383 17.0334
494.095 11.0716
495.271 16.7949
496.285 29.0261
497.111 8.11193
498.351 2.38625
499.177 3.6898
499.918 27.8576
501.017 20.3434
501.866 5.27629
502.815 85.851
504.002 57.4923
505.164 218.543
506.206 46.8132
507.594 11.5656
508.763 24.2532
511.369 3.24813
512.520 28.2814
513.318 35.505
514.442 29.9194
515.437 37.1078
516.170 11.6129
517.280 11.5731
518.430 19.5488
520.718 17.4738
521.368 4.87062
522.674 26.8677
523.620 63.8322
524.287 9.36069
525.544 4.6281
526.146 14.2232
527.745 8.15962
529.308 732.023
530.399 106.306
531.405 35.024
532.027 10.4387
533.287 43.5247
534.334 3.30356
535.502 20.7832
536.370 11.5599
537.305 26.4261
538.978 91.159
540.363 55.0391
541.313 89.858
542.208 18.0819
543.320 27.576
544.067 56.5726
545.434 4.34007
546.586 66.9826
548.110 22.8004
548.736 13.094
554.705 105.656
555.620 183.947
556.283 35.5944
558.130 360.149
559.267 150.534
560.683 62.4856
561.628 45.3751
562.446 17.5784
564.408 20.7043
567.921 32.031
569.184 36.1758
570.355 34.5508
571.260 56.7398
572.853 23.7272
574.162 19.6801
575.195 24.8737
576.336 270.809
577.489 607.865
578.343 168.716
579.402 35.7547
581.233 76.9563
582.133 11.6825
583.356 20.7836
584.392 44.5903
586.493 1204.03
587.409 143.412
588.214 32.1413
589.877 4.33
591.966 2.25614
593.202 35.6385
594.786 50.37
595.463 19.3941
596.148 8.68417
597.283 61.5488
598.257 73.42
599.109 87.4816
599.961 18.007
601.680 32.0281
603.095 44.8252
604.226 31.7059
605.360 39.4385
607.353 20.1612
608.484 28.9483
610.372 76.8331
611.408 13.9665
612.997 12.6615
614.503 2.92071
615.313 4.33719
616.367 1270.08
617.431 401.678
618.465 70.1136
619.668 26.1278
620.442 51.2189
621.339 54.2816
622.292 5.71151
624.130 15.1058
626.446 40.7512
627.988 94.2257
629.021 69.1374
630.153 46.4217
631.482 27.0515
632.335 8.70127
633.329 13.7113
634.115 53.4424
635.062 48.1486
636.758 142.659
637.957 45.4266
639.046 107.274
640.451 57.1864
642.045 133.75
642.834 16.6294
643.690 50.1568
644.703 45.5915
646.032 75.9767
647.246 24.8367
647.917 51.4286
649.127 15.223
650.381 14.576
651.020 10.988
651.996 65.3931
653.474 59.8072
654.257 16.3724
655.807 46.0556
656.563 15.6566
657.415 72.1297
658.315 32.0557
659.484 30.329
660.377 46.6429
662.030 74.1407
663.484 58.9903
664.521 16.2533
665.309 35.4308
666.295 160.657
667.099 91.1042
668.037 10.4999
669.015 56.0422
670.371 145.17
671.425 64.7791
672.435 51.1069
673.685 19.3307
674.494 50.7579
675.508 89.6685
676.457 77.4778
677.261 20.9346
678.338 222.438
679.590 194.753
680.424 13.9793
681.528 54.9712
682.455 15.6748
683.837 116.729
685.558 32.8435
687.350 317.476
688.359 350.512
689.192 88.9221
691.335 163.239
692.613 407.702
693.529 235.212
694.620 35.0872
695.330 23.293
696.454 86.298
697.726 156.416
698.596 61.6931
699.492 149.919
700.797 122.05
701.591 880.975
702.647 11.3142
715.527 53.0912
716.657 13.9709
717.279 15.8832
718.049 1.94222
720.526 10.3296
724.005 5.089
726.320 10.0171
727.141 28.9069
729.712 8.53683
732.594 10.9171
733.548 9.30158
734.406 38.2505
735.441 10.9025
738.367 15.1325
741.271 5.93066
743.470 8.3682
744.348 7.61151
745.426 21.0154
748.721 19.5448
749.703 10.2074
750.341 16.9877
752.398 13.5655
754.895 28.1368
757.738 12.0898
758.545 30.7702
759.617 16.6762
761.398 20.7409
762.106 5.75276
763.250 66.6617
764.758 26.624
767.035 22.2156
768.662 4.11936
769.286 2.59884
770.370 10.9843
771.172 22.3655
774.058 30.5987
774.963 15.9319
776.042 12.5957
777.577 11.0118
779.318 22.7578
780.836 42.8006
782.400 13.6974
784.226 36.5645
786.260 229.794
787.363 316.629
788.372 68.0005
789.478 18.1955
790.487 8.38507
791.401 15.2061
794.084 28.2374
799.238 30.8701
800.319 26.8502
801.510 8.15269
804.284 549.992
805.504 218.454
806.478 11.3008
807.654 3.90475
808.341 46.9301
810.256 20.2357
811.818 12.823
812.522 6.20628
815.166 42.3551
816.494 10.2289
817.683 13.4241
818.496 2.59881
819.478 36.319
820.350 11.6617
822.406 15.0106
823.414 11.364
825.124 12.6396
826.462 38.3746
827.504 48.7402
828.212 7.63904
830.729 13.3093
832.156 29.9412
832.890 5.4981
833.569 8.11469
834.248 20.168
835.275 69.669
836.178 5.10783
838.242 6.65327
839.355 8.82977
843.285 8.89625
844.501 971.86
845.389 514.413
846.432 154.324
847.398 27.2749
854.763 52.949
855.441 4.85841
856.103 12.6919
856.896 31.4064
858.010 18.7145
859.523 54.2961
860.378 12.4126
861.156 3.90479
863.620 5.10389
864.336 15.0817
865.792 5.26555
868.078 33.3311
869.062 24.9872
870.649 2.38308
871.473 5.34767
873.202 83.4348
874.408 164.315
875.123 19.4726
875.835 3.90289
878.026 94.1086
879.020 36.6086
883.540 18.9416
885.597 11.5197
887.316 82.9102
888.287 40.1459
890.492 55.0508
891.360 319.44
892.371 113.828
893.500 9.5258
894.551 3.02382
895.282 5.42331
896.614 29.702
898.444 31.0225
899.439 36.4223
901.415 21.5241
904.398 10.2633
905.335 2.81753
910.500 15.1822
911.543 30.8288
912.618 19.6584
914.058 5.9247
915.615 379.347
916.662 223.141
917.460 51.1041
919.089 74.493
920.222 25.6616
922.379 22.2721
923.437 32.798
924.641 7.80873
925.500 29.481
926.469 13.1061
927.284 20.0966
928.350 13.7716
929.232 23.1382
931.187 52.5396
933.320 9.88747
934.262 3.13072
935.368 7.29679
936.356 45.5306
937.041 14.2768
938.344 4.86274
938.984 3.68761
939.823 64.4372
940.686 52.8158
941.933 53.3702
944.310 175.952
945.279 98.9317
946.707 39.5944
947.779 20.6394
948.433 8.93359
950.618 58.2633
952.040 26.1958
954.139 64.0697
954.869 52.9842
955.629 23.1151
956.595 6.69536
957.719 20.0153
958.560 2.59004
959.450 23.589
960.548 25.9927
961.800 44.5875
962.474 128.536
963.443 136.624
964.419 58.5506
965.732 70.5687
966.577 29.6526
968.238 9.52243
971.764 146.741
972.530 1464.94
973.507 595.047
974.640 205.172
976.173 13.1914
977.656 4.12228
978.486 29.1006
981.500 7.6017
982.317 25.7619
983.721 5.70163
984.488 5.41649
989.347 9.8385
991.649 36.2271
994.749 8.68827
996.311 17.1105
997.856 34.4751
999.450 9.88446
1002.414 19.6645
1003.565 23.7199
1004.433 33.8426
1005.785 12.0454
1006.642 11.9731
1008.597 38.6363
1010.207 1.73141
1012.440 15.34
1016.903 10.161
1018.657 8.98555
1021.103 46.545
1023.759 26.8046
1025.112 50.244
1025.792 15.3479
1027.560 22.4312
1028.260 10.9317
1030.204 47.0699
1032.262 6.16023
1033.810 13.7705
1039.439 12.6914
1040.428 22.5073
1041.454 7.89934
1042.249 11.9641
1043.490 697.053
1044.469 480.318
1045.391 108.734
1046.559 5.30861
1047.592 15.9476
1048.876 12.0019
1049.786 4.77382
1052.625 2.38007
1053.668 7.81871
1057.447 229.685
1058.408 163.21
1059.645 59.2662
1060.448 20.0883
1061.334 16.3004
1067.801 31.3368
1072.396 46.6609
1075.386 410.357
1076.526 196.947
1077.422 63.226
1078.613 100.899
1079.291 8.28205
1080.640 35.1544
1087.468 5.16111
1088.451 6.16339
1089.802 25.4185
1091.545 24.475
1097.840 10.7482
1098.961 5.20112
1099.674 22.2499
1102.100 5.29442
1106.583 8.69757
1109.449 8.77727
1111.972 18.1023
1118.656 15.1579
1119.540 10.9345
1125.590 10.3981
1126.282 6.81178
1136.482 7.68885
1140.364 9.18307
1141.747 22.6196
1143.694 7.0358
1144.636 19.1336
1147.676 7.0249
1152.397 6.29952
1153.392 39.6348
1154.508 33.0479
1155.361 18.1143
1155.979 9.36231
1156.709 10.0669
1159.569 3.91012
1160.700 69.6908
1161.841 18.2786
1166.805 13.2097
1167.630 9.00624
1170.356 141.249
1171.450 300.122
1172.494 104.988
1173.705 52.9206
1175.632 22.4549
1188.488 750.602
1189.465 363.845
1190.470 211.219
1192.287 46.0684
1193.664 38.9626
1194.565 33.3849
1196.952 3.97911
1199.225 2.7389
1202.491 7.38195
1203.415 5.86236
1204.820 9.11569
1207.770 14.4173
1210.904 20.1978
1213.182 6.8108
1216.704 6.57006
1224.032 27.3072
1227.537 6.07445
1228.309 5.77467
1237.371 27.2314
1245.752 122.559
1246.876 46.3379
1247.556 14.4974
1249.593 15.414
1254.967 5.62717
1265.565 15.3043
1270.535 36.4128
1271.899 2.66312
1275.330 21.5072
1282.610 18.0775
1284.757 5.28558
1285.447 18.9695
1290.709 8.17673
1292.417 14.6225
1354.821 6.05943
1415.035 15.9399
END IONS

BEGIN IONS
TITLE=Spectrum3196 scans: 6534,
PEPMASS=727.40625 76793.82031
CHARGE=2+
RTINSECONDS=4269
SCANS=6534
210.993 7.41037
215.194 8.77445
216.156 4.88845
225.243 7.18996
237.046 5.96994
239.123 40.5182
240.236 10.4453
245.279 16.8075
254.132 4.23522
268.118 4.45901
272.488 24.1257
275.079 27.1563
275.993 8.27189
280.423 2.23451
281.347 9.9384
284.055 1.78786
287.605 6.60248
297.912 25.291
300.366 5.07759
301.103 2.01669
302.206 7.83044
305.180 18.627
308.123 14.4223
309.155 2.50624
310.814 5.75624
315.390 22.8895
322.174 93.0571
324.343 2.37022
325.846 7.96007
339.074 3.37389
340.111 26.0517
341.221 3.53335
343.251 19.5052
345.218 20.4697
349.138 10.9856
351.314 5.26955
354.217 21.6219
355.198 13.6336
357.276 18.4522
364.510 5.16388
366.875 26.4541
368.995 2.47611
382.069 11.4005
382.957 5.07883
383.868 2.44582
385.250 48.4109
386.593 6.89918
389.132 7.01411
392.269 22.3973
394.959 5.72842
396.600 31.2253
397.320 2.42505
398.223 14.0406
401.105 98.7893
402.028 73.4889
402.700 6.7478
410.948 2.66601
414.345 42.278
416.474 9.39431
418.119 10.0741
420.974 10.9572
424.412 31.0967
428.609 14.4916
431.962 10.9347
439.400 15.2907
442.375 51.3362
443.050 3.57182
444.169 15.1229
450.514 6.43256
453.310 5.05406
454.700 6.27587
456.357 13.563
461.376 6.16689
468.351 63.5907
469.138 1.78854
470.423 4.06824
477.148 12.0256
480.465 11.6162
482.533 18.4292
484.119 8.11885
485.331 337.927
486.079 80.3047
486.972 35.5839
487.678 1.47465
492.052 35.5799
498.348 1.79988
499.242 5.15044
500.173 6.37188
503.717 48.5321
504.346 44.9101
508.264 21.1797
509.429 9.49759
510.298 27.9891
513.185 4.00959
514.393 7.89612
517.944 10.2906
519.037 21.0663
520.418 11.8101
522.546 2.90088
525.231 8.12889
527.163 34.0204
528.234 63.4807
531.132 4.84586
533.334 3.17186
537.279 168.959
538.393 62.3937
539.384 11.1401
543.297 5.96646
555.247 313.897
556.336 47.5922
557.153 79.8362
560.745 11.521
565.413 6.69179
567.463 7.02143
568.429 21.134
569.440 7.89821
571.319 7.03109
574.286 11.157
575.464 28.065
576.897 69.7008
578.222 8.11169
580.444 15.355
581.891 6.4149
586.165 50.3344
587.202 40.6964
589.647 30.2717
590.869 13.1212
591.777 9.41722
594.371 2.22972
595.929 4.92904
597.683 9.52655
599.444 12.4607
603.207 2.44526
604.297 17.0567
608.568 7.86146
609.823 49.4689
611.634 38.358
614.332 579.887
615.423 265.68
616.229 57.7014
620.487 50.0306
622.414 2.27738
623.408 15.7674
627.412 16.4153
628.319 7.90463
633.362 109.696
634.193 165.216
635.358 19.202
638.281 189.383
639.360 69.1985
640.266 44.1933
640.888 6.46909
642.518 270.398
643.580 26.8709
644.385 3.549
646.092 21.3203
650.487 8.33536
652.946 19.0841
655.778 39.2443
656.600 42.3117
657.304 52.7371
659.504 18.6771
662.407 3.9899
663.495 4.03519
664.507 10.5459
665.706 46.4762
667.355 13.4
668.244 29.1209
669.073 17.2409
670.181 44.9995
671.062 35.7014
673.213 2.44569
675.380 8.11553
676.046 21.4793
678.457 8.78703
679.318 24.4008
680.148 151.376
681.034 25.8
681.913 78.9186
683.203 29.8106
685.359 867.043
686.381 315.504
687.419 22.0257
689.288 80.6516
690.688 11.6763
691.351 53.2573
692.497 3.77257
693.355 8.60805
696.294 37.5207
697.514 42.7511
698.396 7.7496
699.103 9.48525
700.090 11.6777
703.486 2.88443
705.550 8.75496
706.417 15.7773
707.762 119.965
708.737 190.721
709.365 768.785
710.302 252.679
711.228 13.4614
712.270 29.6149
713.090 36.3405
715.507 41.9706
717.303 70.2252
718.366 344.123
719.077 46.5846
728.117 7.89988
733.694 13.1839
741.293 49.4321
751.289 463.807
752.271 96.8103
753.386 8.80576
754.082 28.3144
759.772 10.1288
760.550 29.1809
769.448 186.606
770.429 72.7335
771.453 19.6941
774.321 3.1019
777.408 44.5287
779.067 12.6999
781.146 4.45831
783.113 101.131
785.998 24.5855
788.588 9.75411
794.866 33.102
798.388 387.106
799.459 178.265
800.445 13.5632
801.516 16.1136
803.297 1.91888
804.709 23.4995
805.443 3.92053
806.817 5.27321
813.095 7.06934
816.566 14.4311
818.508 12.6124
822.389 151.723
823.438 128.453
835.138 15.9245
837.412 9.26451
839.593 31.692
840.533 196.985
841.403 95.9082
842.570 9.83586
852.059 3.15935
856.414 4.02803
858.801 8.98581
866.559 14.3119
868.688 4.03993
870.786 8.76503
871.813 5.2853
879.519 42.6057
881.484 6.73139
882.404 15.3092
883.189 7.74943
889.565 5.27316
896.326 12.8107
899.478 755.327
900.489 327.446
901.483 59.3701
906.372 3.96376
916.806 21.441
923.232 55.6559
932.701 34.2255
933.525 30.5376
934.406 35.2445
943.863 18.6113
951.145 54.8386
951.978 69.6137
952.771 4.14031
959.111 13.1186
969.437 104.457
970.383 66.3524
971.475 14.2141
973.770 2.23415
978.558 3.78304
982.357 15.617
984.436 9.27608
987.928 6.00553
989.572 5.05746
991.016 24.7469
994.847 9.28937
995.693 10.7558
1002.443 17.8944
1005.918 8.33574
1006.536 13.1553
1007.410 7.4488
1012.509 208.961
1013.459 61.5205
1014.656 39.6915
1016.994 13.1214
1020.522 10.5775
1028.632 5.5162
1032.776 7.49437
1040.393 9.28102
1044.232 11.5679
1047.453 19.227
1051.524 26.16
1052.519 10.5004
1063.033 5.92319
1065.166 14.4664
1069.533 324.122
1070.455 236.112
1071.580 67.5267
1073.334 7.68758
1084.599 5.98004
1090.050 18.0068
1097.770 7.95879
1104.849 38.071
1110.182 9.0324
1114.109 73.0439
1114.922 23.2404
1115.659 32.2434
1119.727 17.0779
1126.894 8.17895
1127.576 10.9994
1132.271 96.5699
1133.250 76.1447
1134.469 36.7129
1140.495 8.53683
1150.300 21.3437
1152.640 44.7504
1153.686 68.7863
1154.756 18.344
1168.880 11.7922
1170.540 183.686
1171.573 64.4914
1172.668 25.5954
1192.702 3.53484
1236.410 6.7567
1240.823 13.0689
1243.665 25.6572
1251.400 25.0808
1261.056 52.1425
1262.073 51.1125
1267.645 24.2107
1271.518 13.3784
1276.245 3.96313
1279.642 26.287
1280.544 67.9766
1281.358 7.93836
1282.074 2.87273
1283.489 29.152
1284.704 15.4958
1285.735 10.7576
1286.615 4.84205
1288.808 11.5805
1305.910 11.4046
1348.254 10.9469
END IONS

BEGIN IONS
TITLE=Spectrum2559 scans: 5242,
PEPMASS=1184.48315 118881.42969
CHARGE=2+
RTINSECONDS=3507
SCANS=5242
343.303 7.66222
345.867 7.05005
359.467 10.2872
363.106 10.3071
369.157 14.6762
377.110 43.9084
377.760 1.49992
378.384 2.2372
379.282 5.52666
397.150 16.5299
424.208 3.34024
431.890 1.80364
433.941 5.49729
441.578 2.31913
450.195 22.5317
459.924 7.07069
462.085 7.37573
470.594 3.32631
471.971 19.6458
487.189 21.2473
490.335 11.4306
498.603 7.88695
504.403 6.41747
505.260 154.966
506.200 15.0204
507.279 15.1438
512.323 13.4573
512.936 7.01852
515.081 5.35764
521.302 3.1272
523.010 14.3792
526.927 9.73468
533.033 4.22373
539.246 8.04801
551.361 3.54009
553.040 6.17045
556.416 2.72053
558.724 10.0979
559.518 9.29132
568.767 23.6621
569.375 11.1895
585.124 8.56778
596.531 2.23855
604.243 37.1846
606.322 29.0746
613.471 11.4241
622.448 13.8829
624.483 3.97383
638.358 15.4233
640.606 17.2546
642.330 12.7058
644.233 8.77569
650.168 28.0493
651.161 15.7754
660.421 6.89008
662.298 2.68613
668.316 164.946
669.289 80.2066
670.226 21.2077
671.394 13.7855
673.636 9.00779
676.459 9.42768
681.180 6.43795
684.549 5.73452
696.913 10.7287
700.796 18.7671
715.755 13.5801
724.127 17.4363
730.038 2.05347
732.553 35.6198
733.280 2.97276
734.641 26.6681
735.307 8.3207
747.330 5.15311
751.293 61.0722
752.289 8.11035
752.963 2.4791
763.344 11.3217
764.265 42.3934
774.183 13.0131
776.278 17.2588
781.310 100.578
782.496 8.86641
783.441 2.67375
784.426 34.3512
785.343 4.93189
786.210 6.39368
790.248 14.3531
796.092 9.35673
802.054 8.15376
804.125 26.7748
814.067 4.41129
820.327 11.8773
823.329 12.5524
835.749 9.46917
837.897 6.79921
844.004 13.1232
854.543 3.75201
857.894 1.14901
859.353 4.92407
861.218 1.58546
863.092 14.9271
864.030 9.65011
866.495 5.75641
874.521 15.8025
879.138 2.69424
880.599 9.52898
883.398 5.9313
884.478 16.7889
885.228 6.42998
889.284 51.3228
891.605 4.41405
893.297 6.38527
895.479 258.177
896.378 83.28
897.509 59.5412
898.875 8.78556
899.807 25.3798
901.848 11.2579
903.164 18.1846
905.146 5.30807
911.290 40.1625
913.339 3.13979
921.326 8.24128
925.250 20.1994
928.349 8.44122
935.545 12.3085
943.013 9.22374
946.455 18.2103
952.764 24.4121
956.213 46.2568
957.322 37.8279
958.391 7.29147
959.832 13.5022
964.182 47.8872
965.338 18.3181
966.315 49.9227
967.584 18.8295
971.479 15.2995
973.614 7.06399
974.603 18.2744
979.709 11.8096
980.643 12.457
982.169 134.137
983.390 20.2234
990.165 7.48208
991.266 15.5528
993.609 7.01941
994.604 16.652
999.463 9.00227
1010.541 245.77
1011.568 86.7163
1012.176 1.978
1012.811 27.6631
1013.576 42.4707
1018.456 17.0002
1019.616 8.09841
1022.165 29.0954
1024.474 6.81811
1028.338 2.02207
1033.748 4.23488
1036.326 22.2735
1044.560 11.465
1045.260 28.1523
1046.346 24.7846
1047.486 13.2484
1048.287 14.3966
1050.142 28.3669
1053.988 104.693
1055.057 29.3931
1056.451 5.70991
1063.264 119.865
1064.373 32.7176
1065.204 21.5339
1066.517 18.7716
1068.720 10.4244
1070.743 11.8754
1081.212 379.621
1082.269 126.219
1083.147 92.3246
1084.193 22.0691
1087.401 31.7405
1093.887 20.0204
1095.657 35.1521
1098.205 5.92139
1103.429 6.43745
1106.627 4.86306
1113.712 3.09868
1114.329 7.91556
1117.141 7.09098
1118.219 7.46541
1121.518 2.6752
1125.771 11.9141
1130.531 14.7149
1131.276 10.1287
1132.508 33.1436
1139.377 5.73467
1140.892 16.4562
1144.214 8.32822
1147.305 7.72636
1148.315 13.8332
1149.594 11.3951
1150.380 2.45208
1151.402 17.3204
1152.987 27.9283
1154.180 21.5761
1155.764 7.08383
1156.713 11.3646
1158.020 84.5829
1158.969 33.6982
1160.778 16.6979
1161.594 2.88548
1162.598 17.1539
1165.462 15.9545
1166.992 144.951
1168.099 95.5908
1173.547 213.926
1174.659 116.035
1175.558 16.5677
1213.464 7.24597
1257.416 11.3706
1258.102 7.04744
1269.521 32.2848
1270.539 86.0787
1273.870 15.5534
1275.018 2.25068
1287.536 841.276
1288.583 452.291
1289.709 136.697
1290.581 18.3267
1298.613 8.3669
1314.469 26.0938
1322.974 6.24777
1324.059 21.0939
1325.440 20.9747
1340.566 7.95016
1341.658 30.8087
1342.375 6.71363
1343.994 6.50838
1358.244 137.901
1358.894 13.4752
1359.550 33.6338
1360.408 38.9352
1368.804 12.3072
1369.810 20.4542
1370.882 4.18326
1386.513 114.566
1387.686 139.11
1388.521 48.8736
1389.289 19.4395
1393.279 2.45797
1397.242 14.326
1424.315 11.2395
1427.214 18.1162
1439.395 19.8753
1440.382 44.2648
1455.901 26.9071
1456.689 9.44377
1457.694 209.025
1458.753 145.401
1460.897 26.5563
1462.932 10.7514
1469.211 6.14041
1470.594 4.19758
1473.239 72.7245
1474.284 91.1633
1475.236 15.0856
1476.440 23.3708
1499.183 7.71101
1501.145 19.7861
1513.736 11.0068
1525.770 12.932
1538.291 18.1198
1553.293 17.5476
1569.961 44.9041
1570.717 21.1663
1575.641 2.01712
1584.290 18.1048
1585.444 9.87948
1587.340 25.6056
1588.209 6.19156
1593.518 5.52712
1594.596 22.1337
1599.780 6.60107
1601.088 13.6094
1602.577 27.9608
1604.552 11.1559
1617.639 186.713
1618.775 148.968
1619.732 55.878
1620.734 21.8275
1631.646 19.4075
1648.288 7.67022
1652.141 1.82533
1664.687 20.2958
1665.303 16.7934
1667.484 37.198
1668.521 8.78452
1672.646 9.22682
1673.522 2.05994
1674.156 7.64596
1682.262 10.4991
1683.737 135.088
1684.563 43.709
1685.492 37.6602
1700.519 147.549
1701.546 118.096
1702.486 51.5199
1703.906 11.3829
1723.900 6.91792
1728.784 14.0116
1730.580 8.90932
1734.591 5.9355
1746.660 85.1555
1747.852 47.6447
1748.941 7.03344
1756.424 7.25304
1772.783 5.74317
1796.007 11.1076
1801.693 10.3074
1802.475 5.75705
1804.467 10.0701
1810.849 18.5729
1817.471 83.2356
1818.360 37.2279
1819.351 31.5793
1829.695 25.3567
1830.631 12.4907
1833.037 5.73463
1846.696 23.6521
1847.607 84.2991
1848.599 4.4125
1860.121 3.3483
1863.365 107.048
1864.641 44.2
1865.569 32.5047
1880.401 3.3497
1900.764 2.45853
1946.544 10.9467
1947.644 13.7835
1948.363 7.47655
1949.081 9.1264
1955.980 7.01511
1958.532 9.64413
1959.133 8.32765
1963.642 5.05968
1966.575 15.0407
1971.749 2.31162
1974.298 82.9453
1975.223 26.8411
1976.759 56.9679
1977.804 7.26863
1992.002 60.5134
1992.910 100.83
1993.681 2.35008
1996.590 19.4726
END IONS

BEGIN IONS
TITLE=Spectrum643 scans: 2041,
PEPMASS=530.78534 329968.43750
CHARGE=2+
RTINSECONDS=1939
SCANS=2041
153.163 8.43308
155.221 12.1773
155.942 9.86663
157.101 12.5187
158.114 56.0417
159.029 6.4732
167.136 26.8366
168.977 25.225
170.005 16.1932
171.032 18.9335
172.038 13.3029
173.080 41.7268
175.105 386.663
176.137 19.4432
177.126 21.1724
180.291 2.90225
180.968 9.37945
182.492 60.5164
183.213 143.402
184.336 35.5248
185.157 71.9936
185.879 13.518
187.067 70.0004
188.197 4.42488
189.088 13.4249
194.298 8.31909
195.102 39.2508
197.071 41.4396
198.000 5.12919
199.268 38.6207
200.174 90.1775
201.033 38.4979
201.930 2.60339
204.190 13.5126
205.269 6.85996
209.116 33.1438
210.017 13.6187
211.091 49.2834
211.988 19.3437
213.185 16.8341
214.046 14.2229
214.952 5.91411
216.135 63.9675
218.300 12.649
219.141 7.15581
222.325 10.6396
225.110 18.6586
226.304 18.1287
227.217 7.1101
228.178 21.7128
229.224 52.2177
230.190 16.5498
231.185 31.6564
232.235 33.1962
235.187 4.12222
237.015 41.7396
239.133 9.224
240.221 20.0916
241.020 24.5087
242.380 39.6215
243.182 45.9958
244.114 88.973
245.708 73.1849
246.384 10.4042
247.836 11.6355
249.199 6.81701
250.225 28.267
251.561 59.2156
252.361 20.2882
253.163 30.9179
254.007 36.2724
255.236 73.2895
256.280 7.43378
257.996 73.5681
258.868 30.7791
262.226 45.9835
263.257 3.21204
268.081 45.5936
270.223 43.2288
271.159 78.7019
272.128 33.4609
274.240 16.4913
275.234 49.1633
276.409 24.3277
277.160 6.03552
279.033 2.90643
279.959 9.68026
280.987 31.7541
283.313 13.4977
284.232 87.6126
285.192 33.1749
286.198 73.2957
286.978 8.37324
288.188 175.049
289.319 85.3539
290.332 21.2874
292.132 5.88632
293.372 5.91122
294.261 77.4345
295.316 21.3953
296.206 10.7334
297.218 14.2694
298.415 7.5533
299.439 34.0095
300.520 39.3284
301.332 51.7968
302.256 18.8338
303.269 469.214
304.281 50.6484
305.073 54.8022
306.361 5.30911
307.113 31.134
309.175 29.2554
310.262 97.4998
311.163 172.662
312.084 136.19
313.028 37.0506
313.707 22.4397
314.405 35.7727
315.198 83.4217
316.175 43.5309
317.233 64.2079
317.964 18.6264
319.318 32.6572
322.379 11.8499
323.128 8.93397
325.546 56.9776
326.798 117.874
327.497 8.29417
328.644 59.9306
329.310 166.253
330.230 64.4307
331.113 33.0675
331.992 34.6935
333.132 76.0938
334.112 15.3369
335.038 3.81161
337.180 13.9216
338.306 15.3841
339.361 58.6059
340.196 15.7194
341.678 9.59426
342.279 13.6814
343.193 31.7479
344.327 94.2017
345.368 47.3928
347.267 20.2011
349.203 47.8944
352.416 13.996
353.507 34.5235
354.697 37.1684
355.412 39.3585
356.654 29.0178
357.270 65.133
357.874 5.51943
359.311 16.2531
360.343 109.428
361.223 91.816
362.285 10.1638
364.290 39.2515
365.325 7.84845
367.212 285.213
370.407 5.99011
371.264 10.8004
372.369 38.1974
373.434 33.2879
374.379 23.4037
375.345 27.9089
376.349 11.8342
377.347 71.6301
378.250 4.12719
379.531 39.5478
380.184 13.5817
381.336 16.4196
382.391 37.6722
383.396 21.4612
384.264 35.8505
385.095 160.867
385.905 34.9625
387.232 10.1549
389.260 1400.19
390.351 240.007
391.533 51.9314
393.258 32.0745
395.343 28.7407
397.209 65.2683
398.243 84.1716
399.171 23.5211
400.435 131.596
401.383 36.2334
402.647 88.5513
403.350 74.5976
404.250 73.0043
404.962 37.9933
406.514 28.3908
408.351 71.8841
409.770 70.418
410.432 6.92022
411.122 19.7384
412.253 126.031
413.148 40.5647
414.147 93.6671
415.091 34.0708
416.125 65.9311
416.731 2.8187
417.334 121.582
418.475 33.2658
419.333 21.6098
420.896 20.428
421.520 10.2
422.803 193.41
424.021 90.1223
426.229 239.567
427.198 110.564
427.859 13.373
429.304 80.1408
430.501 192.069
431.398 107.197
432.231 9.86059
432.986 118.283
434.191 92.1741
435.480 78.9532
436.485 86.1805
437.783 11.9859
439.911 54.8195
441.506 3.82155
443.398 152.866
444.261 690.104
445.335 77.7026
446.001 74.7651
447.028 146.385
448.537 24.5101
449.753 51.1872
450.381 63.9315
451.095 110.475
452.381 77.8657
453.485 14.0827
455.370 41.5261
456.840 157.405
458.082 55.3845
458.833 33.8621
459.802 23.4157
460.729 13.9652
461.556 16.8105
465.711 115.775
466.453 23.9893
467.643 45.6055
468.349 8.6169
469.281 119.146
470.166 30.8261
471.207 40.6518
472.028 82.4285
473.481 120.769
474.219 19.5353
475.019 76.215
476.328 49.903
477.413 124.738
478.837 186.002
479.822 55.8911
480.607 95.8742
481.449 18.4124
482.378 39.846
483.533 12.1412
485.275 87.1223
486.271 100.918
487.287 109.21
488.371 35.6878
489.798 70.3342
491.399 104.415
492.240 29.8836
492.966 7.71693
494.086 126.116
495.027 206.487
495.902 23.8724
496.526 86.1
497.391 158.955
498.299 45.2599
498.982 40.866
499.926 220.645
500.674 63.8257
501.407 84.3101
502.339 75.0362
503.820 180.072
504.434 481.763
505.380 156.705
506.566 21.8758
507.639 183.121
508.625 419.013
509.300 231.598
509.934 55.081
510.555 13.7866
511.267 473.727
512.468 792.041
513.403 1070.28
514.336 439.817
515.516 40.5491
516.788 63.934
517.818 224.439
518.660 137.348
519.346 8.3638
520.591 1895.94
521.490 2241.11
522.448 4455.02
523.351 531.773
526.190 5.64218
530.308 5.03121
539.576 17.4591
540.378 16.5243
542.642 14.446
544.521 137.74
545.275 31.1529
546.622 36.742
547.619 23.3464
549.297 9.86632
550.494 10.2278
551.256 6.27726
553.193 8.97885
554.343 13.9763
555.499 33.8807
556.304 19.3316
557.287 70.8572
558.516 30.4364
559.677 143.075
560.818 8.02894
563.208 6.19469
565.505 24.7483
566.315 14.144
567.757 30.8958
569.144 14.2418
571.410 42.0274
572.260 12.1806
574.298 55.2183
577.315 9.58748
580.167 9.65323
582.415 11.8233
585.253 3.82107
587.229 19.9544
588.406 23.8456
589.325 9.55355
590.461 13.0896
592.546 49.2532
593.688 14.7915
594.518 30.5578
595.525 15.0228
597.044 6.80504
599.547 26.8492
600.383 35.3471
601.410 43.6469
602.498 14.9746
603.429 22.7081
607.512 22.604
608.301 19.4711
609.521 77.4095
610.203 111.475
611.365 23.8392
612.265 24.4585
614.311 16.3531
614.980 11.0392
617.354 1218.7
618.419 499.793
619.410 133.974
621.414 5.97297
622.458 5.28355
624.526 16.7919
625.686 31.0091
626.558 16.0511
627.227 112.23
628.449 9.23556
629.425 35.6366
630.387 21.1491
631.312 63.4438
632.381 60.8435
633.516 27.7605
634.158 14.7714
635.527 14.5723
636.313 18.2827
637.626 13.1957
639.009 12.1097
640.257 43.6099
641.128 26.8205
642.411 19.2652
644.666 23.4367
645.935 21.0387
647.825 38.488
649.994 53.3039
652.431 73.0976
654.373 41.238
655.450 132.963
656.368 69.8559
657.581 37.6656
658.477 210.193
659.390 45.0277
660.420 15.8147
663.316 3.21055
664.165 6.21537
665.956 19.8611
667.833 20.9497
668.492 49.416
669.727 39.5867
672.362 988.373
673.352 117.33
674.563 23.6994
677.429 13.1438
680.275 5.64084
682.229 119.996
683.142 62.6019
685.389 56.5917
686.662 114.225
687.709 102.113
689.263 11.3986
690.211 7.71409
691.221 5.33427
693.460 16.7368
694.579 38.5045
695.447 17.1087
698.477 115.433
699.429 9.6255
700.740 55.5364
701.648 70.5999
702.989 33.2158
704.191 32.0201
705.399 15.6638
706.320 25.7746
707.710 37.4282
708.531 162.098
709.263 4.25677
710.502 23.0586
712.116 63.4848
714.137 50.0019
715.033 48.0902
716.446 10.1954
717.279 12.0134
718.272 14.9851
719.213 134.67
720.331 41.1816
721.875 25.5887
722.489 7.03271
723.442 35.8271
724.363 27.9782
725.396 12.3858
726.363 24.3405
727.447 17.1169
729.909 20.5868
730.614 28.3167
731.350 71.0025
732.466 684.91
733.472 374.856
734.724 88.3912
735.558 20.2315
736.401 3.81911
737.274 33.6449
739.423 10.5542
740.228 18.4412
741.365 57.9867
743.481 28.023
744.631 30.256
745.721 37.9964
746.487 29.5473
747.207 24.0916
748.680 12.068
749.290 10.7716
750.392 25.0895
755.151 11.1191
756.487 102.317
757.484 17.0971
758.459 53.9386
759.770 15.1579
761.956 29.2684
763.746 47.4738
764.398 5.61253
765.306 32.0042
767.334 16.9842
768.952 35.9467
770.348 32.4438
772.416 9.05529
773.428 65.2718
774.372 19.1184
775.399 46.1261
776.115 12.8609
778.828 9.27819
780.206 29.909
782.556 42.5038
783.368 47.4341
784.388 23.0507
785.621 21.015
787.705 11.6643
788.552 11.2831
791.356 14.3588
792.625 37.839
794.266 88.2882
795.426 98.3206
796.131 7.10394
800.347 22.5193
801.300 25.6207
803.326 27.4728
806.409 26.5418
809.302 3.80899
810.231 23.5089
811.312 44.9852
812.421 81.3813
814.376 92.9612
815.682 17.6092
817.399 108.879
818.408 49.6056
819.461 22.7108
822.512 17.9638
825.541 6.84383
826.481 44.2008
829.503 12.663
830.418 6.5423
831.920 82.9281
832.664 188.359
833.381 86.0797
834.814 62.9983
835.624 8.86969
840.737 5.64146
843.427 245.096
844.479 168.734
845.586 222.094
846.752 17.6921
847.930 30.1647
850.395 10.4669
851.419 25.0546
852.395 44.7931
855.356 35.2734
855.994 7.6773
858.349 11.1942
861.401 1219.77
862.424 540.257
863.541 124.834
864.457 132.402
866.138 28.9494
868.586 38.9665
869.210 24.9927
870.525 142.944
871.417 91.9374
872.558 59.4412
873.780 19.9938
876.380 3.50526
881.813 15.1666
882.670 8.12513
883.486 31.1004
884.575 17.7544
885.637 41.1195
886.625 142.644
887.516 157.53
888.424 32.3227
890.766 107.416
892.283 18.6391
893.440 17.3275
894.644 14.0572
897.188 38.1786
898.212 27.5007
902.302 10.0605
904.740 18.9779
908.259 17.0238
911.084 24.758
912.000 31.8581
912.691 16.7656
913.537 54.8774
914.240 97.3652
916.434 29.6887
929.434 85.7675
930.310 5.5989
931.131 4.41669
932.440 2512.24
933.431 904.337
934.484 300.2
942.552 85.872
943.510 82.1776
946.629 15.5683
949.269 3.82196
956.414 50.2806
957.367 7.76296
960.561 9.54443
969.746 5.02263
985.778 23.6683
1019.470 14.2306
1021.272 27.3707
1022.253 8.67761
END IONS

BEGIN IONS
TITLE=Spectrum552 scans: 1884,
PEPMASS=766.36169 405761.50000
CHARGE=2+
RTINSECONDS=1859
SCANS=1884
215.081 11.5083
224.282 4.46076
225.101 7.15443
226.107 26.268
230.282 2.73813
232.125 161.899
232.986 37.3369
233.945 32.4974
235.292 12.6851
237.063 14.6747
240.301 3.60594
241.008 10.75
242.258 19.3771
244.043 19.8406
245.075 4.48022
247.094 5.39275
250.548 8.13537
252.105 41.5537
254.089 9.65821
255.091 9.15648
255.913 10.1912
257.793 10.9937
259.988 217.864
261.488 36.7197
263.249 2.52713
263.889 7.15277
264.835 8.34093
268.005 12.4365
270.353 12.3647
271.064 9.19477
272.197 27.3328
273.148 9.90631
274.064 6.21388
277.264 33.6308
278.203 19.0548
280.043 23.0291
282.227 15.1934
286.562 27.4435
294.232 136.606
295.251 54.9129
295.977 5.78131
297.153 7.0588
298.244 5.37131
299.172 9.19038
300.012 21.7356
303.270 4.26251
305.319 18.5689
310.314 39.8913
311.141 11.5669
312.237 639.392
313.077 115.6
314.203 6.58339
316.378 51.7661
317.099 508.299
318.106 48.5152
319.245 29.8323
320.285 14.682
322.924 12.5177
324.984 40.351
326.576 10.1923
328.372 22.2903
337.206 28.1483
338.406 13.9622
339.691 13.0324
341.079 40.2807
342.208 6.19775
343.236 9.99575
345.227 7.0543
346.183 46.6758
347.249 35.1174
353.090 21.3796
355.078 17.1329
356.092 18.7347
356.963 3.38828
358.229 9.17966
359.079 36.8333
360.111 18.0603
369.302 2.91833
371.064 100.505
372.150 17.2343
373.291 4.67582
376.330 8.17128
377.251 32.879
378.118 27.3215
379.389 18.4638
381.398 14.5173
383.346 12.6521
385.825 26.196
386.752 48.8593
388.108 186.525
389.123 36.2713
390.222 13.1284
391.330 4.93481
392.400 19.4975
393.230 9.61329
394.407 10.9668
395.162 28.4852
396.863 2.73888
398.964 70.2178
400.176 38.0322
402.132 9.2176
404.153 22.3189
405.382 4.01138
406.252 3.43151
407.275 11.4784
408.177 41.8505
408.916 18.0184
410.724 59.1012
411.367 144.738
412.283 39.3963
413.225 15.4187
416.236 257.209
417.156 42.1665
417.852 75.3829
420.417 13.6351
422.234 6.43295
423.818 28.5463
426.415 3.41304
427.131 3.81492
428.454 33.6675
429.240 27.2101
432.739 21.2587
433.361 14.859
434.456 3.60398
435.244 26.7447
436.438 9.2917
438.092 24.4989
439.511 4.07617
441.719 46.0444
442.476 36.3938
444.562 10.9114
445.343 21.0731
446.145 10.79
446.997 33.7977
448.010 4.52693
450.165 15.2789
450.973 12.6913
452.205 5.77291
455.494 19.2307
457.160 31.5681
458.001 13.3662
459.256 13.0167
460.380 7.27663
461.277 40.6752
462.405 12.8975
463.089 33.8322
466.049 23.5122
468.278 502.999
469.295 103.946
470.253 32.9994
471.138 6.71094
472.053 15.389
472.831 54.8126
475.166 39.2726
478.212 8.56581
479.207 12.3465
481.060 63.7052
482.301 31.7082
483.534 20.6644
485.303 107.716
486.319 41.7127
487.330 22.8274
488.505 103.154
489.698 39.4636
491.086 24.6429
492.139 27.74
494.284 17.0317
497.201 5.76606
498.420 60.1806
499.057 13.2839
500.178 20.4894
501.000 6.23105
502.078 38.3701
503.193 79.6056
504.369 22.6933
505.274 6.91066
506.536 40.6871
507.377 15.1681
508.443 19.4911
509.444 25.2363
510.294 10.0817
512.153 20.9256
514.233 8.22911
515.310 52.1769
515.948 22.678
517.382 42.4752
518.382 17.2508
520.038 7.70843
523.312 5.41998
524.041 23.4476
525.578 16.4779
526.793 26.2327
530.338 3.39596
531.536 28.9547
533.101 13.8509
535.228 14.534
536.301 9.19204
537.535 15.2952
538.317 92.7399
540.604 30.6916
541.361 11.6814
544.268 7.76275
545.174 11.6734
545.983 19.034
547.201 7.51232
548.134 8.78675
550.386 36.5419
551.155 53.6884
552.469 23.0937
553.097 10.2851
553.927 5.78937
556.637 41.7043
558.818 165.718
559.512 139.344
561.137 11.582
562.387 18.1162
563.575 7.49989
564.495 1.65736
565.691 14.3618
566.348 1.84939
567.503 5.78841
569.374 590.607
570.286 136.301
571.312 15.1113
574.915 41.317
575.674 9.86205
576.513 13.102
579.307 14.4025
582.077 8.82576
583.198 22.9724
584.125 15.2824
585.139 5.40974
586.303 9.43809
587.390 2.73126
589.280 8.60544
590.331 5.07258
591.226 7.81263
592.326 31.0703
593.335 23.631
596.198 47.247
597.320 59.0271
599.068 5.20831
600.502 12.0278
601.267 9.53821
603.367 10.3908
604.271 24.546
605.525 27.4895
606.502 24.3075
608.617 151.555
609.486 9.59064
614.268 72.0687
615.118 53.1089
615.934 29.0462
616.590 21.3793
617.417 10.9701
619.145 140.868
620.026 57.7994
621.379 50.3561
622.849 18.646
624.341 13.4728
626.478 26.332
627.718 203.585
628.442 151.259
629.399 19.4252
630.436 7.76666
631.192 10.2388
632.125 185.986
632.793 17.8142
634.178 57.7695
635.674 6.45067
637.007 937.259
638.032 118.665
639.050 53.0838
640.092 8.86362
641.169 19.6961
642.269 26.7624
644.327 59.3761
645.611 13.2956
646.406 10.7786
649.584 15.5665
650.404 32.5595
652.086 72.663
653.112 15.6143
654.196 23.9072
656.434 10.8439
658.423 25.4077
659.332 38.8534
660.186 4.26761
663.012 21.0099
664.478 6.72177
665.347 18.2419
666.273 45.8124
666.950 9.13735
668.135 17.326
669.011 11.9686
670.345 684.825
671.473 151.31
672.472 70.1027
674.513 11.2649
675.141 2.73069
676.336 12.9574
677.271 16.6039
678.337 6.43449
679.760 7.54378
680.516 8.64035
682.449 4.91327
683.859 12.485
684.644 2.95824
685.735 79.7182
686.797 205.629
688.371 2.51994
689.088 9.05449
690.751 16.0547
692.210 46.1306
693.888 7.71938
694.499 12.0659
695.213 7.27605
696.371 12.9576
698.523 4.70645
701.428 79.6326
702.474 51.088
703.426 204.542
704.392 11.8798
705.530 15.4127
706.638 42.1424
707.424 10.7812
709.445 11.458
710.414 10.0845
711.477 33.7282
712.801 50.4576
713.498 59.4626
714.429 10.3822
715.248 25.6676
716.429 58.1934
717.255 23.7594
718.176 53.6167
720.228 53.4947
721.184 93.1159
722.304 38.6654
723.343 66.35
724.493 14.781
725.400 54.3656
726.522 121.809
727.278 171.924
728.535 22.1003
730.687 90.1107
731.394 68.5616
732.402 46.7258
733.759 112.359
734.524 94.6826
735.686 472.516
736.544 69.1527
738.260 76.0255
739.658 384.176
740.548 334.428
741.377 62.3249
743.351 221.358
744.526 115.403
745.406 10.1911
746.212 8.34372
747.346 167.792
748.660 2534.64
749.530 865.03
750.906 41.0551
751.763 42.8278
753.172 36.8243
754.157 29.2632
756.147 140.631
757.599 2261.41
758.390 269.569
759.180 60.074
760.209 15.9381
771.463 101.771
772.549 30.7838
781.418 26.6607
784.837 26.6698
786.144 5.81994
787.340 35.0487
788.478 8.14053
790.338 4.26563
800.889 5.42122
802.430 9.46759
803.225 12.2393
804.453 12.725
805.492 18.1583
806.341 7.0765
809.381 22.2581
811.785 2.74263
816.433 20.1297
817.568 34.2638
818.427 19.5051
819.245 8.39301
821.057 16.7566
822.405 13.7395
826.231 24.0453
826.834 4.23509
827.508 4.24151
828.448 23.7118
829.289 3.38846
832.541 4.02826
834.405 3.92693
835.043 10.9528
836.254 46.0805
837.090 20.7515
840.465 10.4795
842.335 15.6501
844.280 109.3
845.398 69.7628
846.389 82.4751
850.428 4.92268
851.490 8.34782
854.542 16.0988
858.230 1.94856
859.447 71.1034
860.516 37.7361
861.496 61.2273
862.313 75.4308
863.268 15.5743
864.144 20.6983
865.332 17.9871
868.305 26.6507
869.096 25.5286
872.425 2.74395
873.732 3.21872
880.328 10.2672
882.284 90.7946
883.561 60.5452
887.366 5.7821
893.451 11.2118
894.224 8.08862
900.469 920.886
901.596 342.5
902.776 56.7126
905.168 12.6513
908.997 45.3432
910.006 48.9813
910.717 2.07104
911.616 14.9674
913.438 4.2471
915.469 11.8246
916.581 4.92056
917.642 11.8564
923.157 7.39953
924.774 39.2484
925.469 2.11734
927.155 49.5584
928.326 66.924
929.177 71.8776
932.349 14.0489
937.103 3.83531
938.496 9.39451
940.885 25.0621
942.197 9.2643
943.459 17.0799
944.260 16.6483
945.327 101.375
946.316 55.0626
947.449 30.769
954.905 4.0412
960.640 10.8038
962.182 12.3789
963.569 32.3652
964.537 29.0451
965.272 6.37896
974.697 9.90842
976.281 15.5659
984.429 6.19996
986.437 24.6682
987.811 32.9296
988.501 8.7189
992.443 5.33323
993.227 13.5195
994.789 16.8472
1000.389 8.57016
1001.875 6.83824
1002.593 27.6403
1007.726 14.8658
1011.395 146.172
1012.518 134.926
1013.522 34.5296
1018.291 6.41307
1019.434 7.28316
1024.030 27.2105
1028.336 107.463
1029.474 693.625
1030.608 344.391
1031.654 69.2377
1035.727 6.34613
1036.429 48.3626
1041.249 17.091
1043.294 11.8232
1045.833 49.5952
1046.667 23.5094
1048.349 26.612
1050.599 54.536
1052.161 8.16472
1053.867 4.29089
1054.492 4.00775
1058.527 3.17924
1059.512 22.0812
1062.533 20.8323
1064.451 45.2293
1065.428 13.337
1068.285 31.5667
1069.105 5.97828
1070.560 14.1919
1073.238 4.06273
1074.572 45.9179
1075.292 7.49154
1077.509 25.8527
1080.593 44.4161
1081.342 26.4226
1082.367 51.236
1083.283 14.6407
1085.748 51.8713
1086.515 3.85021
1087.374 30.6116
1088.349 5.55108
1092.453 4.50704
1093.551 15.5323
1094.251 6.96776
1098.372 259.832
1099.448 177.207
1100.495 113.398
1103.355 37.992
1104.402 43.693
1105.430 15.741
1106.490 11.7566
1116.479 2804.99
1117.503 1542.97
1118.523 285.193
1119.512 5.11225
1120.497 4.57337
1121.548 35.5186
1122.570 10.8696
1123.511 7.94678
1129.650 30.9406
1130.546 15.1689
1131.647 4.61012
1135.375 7.07217
1140.284 2.52283
1141.570 11.6701
1145.702 7.93883
1148.562 2.34718
1152.583 7.61383
1157.318 26.4138
1166.364 11.4256
1167.533 8.15777
1171.969 3.1722
1173.778 11.1801
1174.766 18.4034
1175.908 9.89288
1176.719 3.17221
1179.499 5.78567
1184.400 72.0297
1185.490 92.3724
1186.459 18.0314
1187.150 3.84072
1188.567 4.0206
1197.778 43.9939
1202.385 268.872
1203.514 80.7663
1204.408 12.314
1215.627 238.28
1216.736 103.584
1217.887 59.1053
1220.459 99.5105
1221.449 153.096
1222.537 72.1822
1229.668 4.48064
1230.605 15.9634
1236.458 9.64714
1237.287 7.28198
1238.545 7.91898
1240.309 12.2688
1249.783 7.49463
1254.589 26.3843
1255.526 111.684
1268.382 8.784
1272.005 99.9575
1272.630 825.157
1273.595 541.147
1274.498 92.5165
1285.693 15.1184
1293.836 5.86161
1304.436 11.8512
1306.846 21.7017
1313.580 24.6392
1314.194 11.3897
1317.002 27.9898
1321.197 16.2574
1322.358 25.8609
1322.980 4.0562
1324.495 15.6164
1328.650 7.92401
1329.549 35.0277
1339.567 60.4198
1340.602 79.3305
1341.468 47.6903
1342.472 6.00224
1354.627 2.5129
1355.619 7.2742
1357.521 363.273
1358.418 178.735
1359.445 84.2776
1360.388 7.70221
1362.581 12.8327
1366.560 9.36715
1383.333 8.02148
1445.550 9.21943
1494.807 17.8877
1495.905 2.55347
END IONS

BEGIN IONS
TITLE=Spectrum2463 scans: 5031,
PEPMASS=562.27551 249034.64063
CHARGE=2+
RTINSECONDS=3378
SCANS=5031
162.905 14.895
171.234 17.5001
172.104 25.7717
174.987 10.3257
181.092 35.7821
182.051 5.94931
183.392 10.4781
184.228 8.7436
185.084 13.7072
186.090 6.90249
187.200 11.5773
190.958 9.55802
194.995 21.6497
197.307 38.0595
199.126 41.5036
200.064 4.11611
201.156 43.5394
201.996 10.5053
203.006 3.59757
205.250 10.6162
207.166 5.83202
208.910 17.6801
210.244 4.22442
211.125 2.37635
212.173 2.16462
212.965 31.3611
214.143 5.20066
215.318 6.07115
217.030 235.33
218.097 54.1154
221.102 18.3556
224.022 17.5643
225.086 35.7937
227.000 36.8916
227.866 12.9006
228.966 25.0987
230.095 21.3981
231.233 16.0551
231.933 3.9022
233.463 9.56744
234.339 17.2657
235.235 24.1336
236.231 15.3704
242.090 8.20164
243.886 59.0738
245.072 666.766
246.096 81.707
247.219 12.4853
248.286 4.19238
249.166 30.2496
250.024 66.0025
252.118 6.12668
256.309 6.24159
258.150 21.4386
259.278 16.5704
260.413 7.66597
264.895 6.37749
265.982 17.9308
267.312 7.2703
268.080 9.9373
269.105 7.31224
270.214 30.5641
271.322 18.5812
274.212 8.75024
275.069 73.2829
276.127 101.414
277.213 30.7901
279.308 37.3726
282.136 5.70171
283.032 3.46156
285.185 11.4541
285.978 9.61276
288.323 70.7524
292.025 2.8132
293.205 71.6441
294.079 63.4928
294.801 9.42758
296.264 23.2896
297.150 3.24745
298.226 24.1776
299.141 18.7813
300.116 6.28317
301.008 11.2965
301.921 52.9606
303.957 25.7976
306.153 21.7264
307.989 9.18081
310.155 6.07217
311.387 3.46305
312.582 3.78825
313.240 6.37594
314.112 171.796
315.035 36.0439
316.266 3.68637
317.103 3.80582
317.969 3.77887
322.484 6.72261
323.382 26.3085
325.027 26.8576
327.108 63.2392
328.863 39.2754
329.825 14.8928
331.096 188.961
332.106 481.342
333.299 336.177
334.506 36.4404
335.374 6.79911
337.887 56.7409
339.064 17.0519
339.823 11.1296
341.152 68.3902
342.287 52.2124
343.206 23.72
343.990 27.7031
344.894 19.5867
346.337 4.89149
349.147 21.5747
350.047 2.5966
351.280 8.13916
352.216 3.75207
352.977 4.19908
353.793 11.554
355.089 8.96144
355.955 13.358
357.187 76.0352
358.437 8.18481
359.741 43.8142
361.341 8.40714
362.045 2.37519
366.184 20.8737
367.114 26.0046
368.207 4.61784
369.265 2.20985
370.146 19.8419
373.135 68.0365
374.165 14.4473
375.204 12.6746
376.436 14.3525
377.144 13.9276
378.329 24.069
379.140 6.35395
380.543 25.7715
381.200 3.44302
382.354 24.1459
383.349 13.4653
385.066 342.831
386.002 70.9963
387.175 38.5939
390.341 24.6864
391.286 12.4042
392.114 41.5448
393.839 37.4201
395.283 30.2891
397.218 39.5103
398.183 30.8342
399.612 16.7095
401.094 66.4706
402.078 102.171
403.109 267.586
404.308 289.299
405.166 30.8127
407.121 29.8743
407.881 13.0919
409.266 22.4679
410.429 42.3005
411.213 17.8361
411.956 18.6599
413.218 23.049
414.435 8.54988
415.064 5.61849
417.494 13.7655
418.484 21.1774
419.415 23.3909
420.221 5.72452
421.301 16.5476
422.600 18.3405
424.037 6.78833
424.832 15.0453
426.195 20.8225
429.015 55.9794
429.951 49.4447
431.295 181.342
432.206 20.9968
432.879 104.567
433.645 21.7053
434.662 7.65853
436.412 32.3148
437.260 33.1447
438.066 81.0175
439.944 195.436
441.149 46.5836
441.792 15.4783
444.541 16.2513
445.933 73.704
447.038 149.318
448.184 61.5088
449.062 22.5082
450.179 26.7118
450.891 23.5665
453.212 3.74744
454.984 56.1942
456.139 277.812
457.172 72.723
458.253 38.3673
459.324 45.3104
460.382 29.782
461.160 12.0302
462.237 39.4827
463.251 12.0126
465.771 4.21277
467.329 7.00965
468.202 7.4487
469.257 27.2264
470.106 8.17365
470.750 36.7894
471.439 8.41089
474.127 305.929
475.187 111.824
475.881 20.7033
476.568 2.38076
478.205 6.71527
481.169 19.4695
483.256 2.71206
484.674 14.9481
485.348 27.7801
486.805 94.4356
487.684 23.9395
488.661 33.7555
489.391 17.992
490.266 38.5922
491.032 18.5471
492.366 11.1581
493.299 9.40593
493.961 2.30139
495.976 44.7791
496.960 31.9199
498.477 23.3186
499.193 26.3581
500.206 45.0593
501.495 8.31411
502.306 30.0678
503.125 85.2558
504.355 23.8266
505.152 37.4774
507.166 17.4076
508.380 49.95
509.477 86.0616
510.210 18.8711
510.901 1.72889
512.349 64.9338
513.231 34.1294
514.777 74.7551
515.867 74.229
516.988 124.804
518.113 16.306
519.339 21.413
520.509 17.4661
521.111 2.80578
522.398 5.81535
525.216 30.8096
526.295 95.7007
527.179 87.8663
528.154 42.8558
529.509 88.4409
530.659 45.0186
531.633 38.0113
532.787 21.1265
533.415 4.67899
534.550 18.1884
535.325 19.0183
537.123 151.226
538.358 60.3387
539.867 48.466
542.570 39.3178
543.314 241.057
544.421 599.152
545.284 138.129
546.658 46.9583
547.558 32.1141
548.445 7.65419
549.144 10.7207
549.887 51.9865
551.397 1492.27
552.415 647.602
553.398 2684.08
554.635 70.5422
555.433 50.4807
556.490 9.98368
557.639 5.26067
561.297 17.3758
563.399 4.83743
568.337 4.66177
572.410 29.9531
573.256 66.5324
574.465 11.9996
575.450 1.72803
578.471 5.31022
580.606 7.2764
582.563 3.03025
584.247 13.7548
585.407 22.1125
589.235 5.63766
591.119 12.597
593.431 3.25464
596.224 30.6653
598.820 19.0091
601.362 60.1424
602.354 4.12155
604.174 20.8367
607.286 9.97415
610.848 38.0927
612.346 2.89371
613.353 2.46938
617.175 16.6531
621.314 7.47526
626.187 25.9007
627.352 7.69743
628.324 8.75027
630.231 4.41467
631.192 26.063
632.398 13.5316
633.530 30.3715
635.241 4.55319
636.674 30.1574
637.307 3.53244
642.328 18.1304
644.549 38.7498
646.208 3.89273
650.368 741.083
651.459 143.746
652.449 20.099
654.935 38.7178
655.582 5.87148
657.134 3.31025
658.569 6.73973
659.421 10.9111
661.086 22.8243
662.970 31.7274
664.415 39.8507
665.755 79.9584
666.958 6.71484
668.338 34.5578
674.150 15.8454
675.544 33.87
676.429 22.8652
677.957 85.4181
679.638 24.7768
680.379 9.5547
682.221 23.3757
684.430 6.61794
685.598 9.23699
687.388 5.70137
688.037 7.14958
690.611 5.95373
692.432 36.5826
693.464 12.9979
694.527 34.4137
699.387 76.2529
700.269 13.3028
702.184 75.7388
703.283 15.0782
704.460 21.6767
705.615 6.15633
708.056 25.1005
710.064 5.8155
712.236 20.4012
714.152 10.12
716.214 4.10627
718.919 26.59
720.185 245.693
721.391 1127.15
722.262 378.122
723.317 39.21
725.118 15.6465
727.159 61.1644
729.417 47.6405
730.306 1.93274
731.768 19.4556
732.865 17.5356
733.738 63.5337
734.964 46.2114
735.799 27.4022
736.413 6.94458
737.577 19.6568
738.676 68.8215
740.276 26.1151
741.798 20.7099
742.446 5.0719
744.992 9.22639
746.370 14.4694
747.521 6.1672
748.501 18.1056
749.396 2.88223
751.374 29.9563
753.775 15.3161
755.784 21.9155
757.757 43.0653
760.021 5.95801
760.698 9.41082
761.967 32.3105
763.268 2.60051
764.707 11.4058
765.437 14.8306
766.586 14.9067
767.335 2.16246
768.262 21.1782
769.325 15.0635
770.220 9.46476
773.550 42.7694
774.244 4.40172
776.328 2.81507
776.951 41.6617
779.357 90.0146
780.443 76.9398
781.256 18.3061
782.141 18.6924
782.776 3.25266
784.412 5.97713
786.295 23.7767
788.325 21.2045
791.305 269.824
792.364 374.742
793.512 196.011
794.435 9.65235
795.647 8.67172
798.280 4.41626
799.509 29.9813
800.485 27.6858
803.366 9.00461
806.381 12.4239
808.629 9.82899
809.447 3.6838
815.139 4.40063
816.459 12.4178
817.724 3.24193
820.232 12.8911
821.351 54.4128
824.164 48.7245
825.214 9.16933
827.197 5.06677
828.598 5.49266
830.112 4.33903
833.254 38.3202
836.289 6.06731
838.671 7.16042
841.804 4.86621
844.566 5.36501
845.441 2.59749
846.433 7.03024
848.705 11.144
850.400 15.6516
856.313 5.96397
859.225 7.89931
861.313 117.048
862.481 90.3034
866.106 28.7234
868.575 16.0408
872.392 13.5273
873.034 2.89474
876.427 12.8449
877.392 160.888
879.382 1780.06
880.427 705.706
881.497 66.6077
882.358 5.5103
887.674 5.42543
890.198 56.0031
891.606 44.9529
892.640 90.8673
893.415 19.4618
894.654 11.4511
899.429 15.038
904.597 3.03525
905.329 8.72954
906.451 14.2148
908.409 30.5511
909.639 2.60817
913.470 13.1515
914.189 17.937
916.689 22.1857
917.347 6.80842
918.422 2.59937
920.772 4.41913
927.879 13.2981
928.544 19.734
929.254 8.54567
932.239 12.7679
939.997 4.55535
942.348 17.4641
945.890 17.423
946.992 17.7532
947.706 5.41625
948.973 52.6304
950.127 14.177
955.509 15.4943
956.448 3.2521
957.490 9.8086
959.300 138.886
960.384 79.4059
961.462 5.57888
965.241 14.676
972.015 18.2712
977.311 427.376
978.411 222.564
979.312 17.2418
983.551 6.13943
984.236 3.42674
989.151 6.50853
991.575 17.969
992.778 6.79549
1001.279 8.7591
1007.513 10.5063
1016.638 7.90064
1017.515 8.11009
1028.625 3.67957
1033.191 6.15179
1106.370 10.2845
1134.619 9.19099
END IONS

BEGIN IONS
TITLE=Spectrum271 scans: 1395,
PEPMASS=537.28284 314801.75000
CHARGE=2+
RTINSECONDS=1603
SCANS=1395
155.039 18.5204
158.160 8.7132
159.116 149.656
160.156 15.4518
172.093 5.19838
175.280 80.2283
180.230 9.7221
181.341 5.79376
182.116 11.7369
183.149 21.923
185.224 12.5022
187.106 297.962
187.923 19.1244
189.041 19.8827
191.021 18.8139
191.974 7.4925
199.147 17.2325
200.181 14.4365
201.049 43.6273
201.942 13.5171
203.205 18.337
206.973 6.35637
208.091 2.35566
209.181 61.5102
210.039 16.2951
210.863 10.0123
212.094 22.7417
213.272 52.0059
214.254 15.3583
216.016 16.1068
218.113 248.058
218.928 45.4847
221.015 108.966
222.126 24.8597
223.099 16.0956
224.211 12.7428
225.528 49.6802
226.283 43.2267
227.267 73.6182
228.198 308.798
229.075 13.8027
229.983 10.7748
234.291 25.705
235.245 19.1513
235.983 3.78274
237.323 7.22045
238.720 5.47275
240.151 4.64153
241.048 224.151
242.199 55.2647
245.082 8.34703
246.399 2.92361
247.268 8.39091
248.095 44.9549
249.539 9.17886
251.982 478.136
254.239 19.1738
257.237 7.21908
258.134 31.647
260.049 45.964
262.230 23.0476
263.195 3.2066
266.282 19.1374
268.099 58.9942
269.093 921.759
270.534 16.3888
271.203 33.0715
272.208 25.0394
273.120 8.6392
273.954 8.06608
275.030 16.1302
276.195 9.05225
279.279 4.6393
281.018 1194.88
282.041 360.011
283.138 280.347
283.991 12.58
286.066 375.611
286.965 51.6773
290.164 29.4018
291.184 58.6843
293.987 19.8878
295.088 20.6394
296.552 29.172
297.315 29.3171
298.809 251.551
299.687 113.21
300.696 26.6876
301.339 2.91727
303.129 78.5356
305.161 20.8969
306.302 54.0505
308.180 10.3625
310.122 40.1772
311.276 31.6115
312.173 8.06011
315.305 51.3279
318.174 20.0441
319.551 5.19982
322.030 85.3969
323.308 67.3581
325.162 31.8783
328.394 57.4975
329.220 38.5282
330.014 12.4025
331.261 6.35185
333.274 511.882
334.256 41.2999
335.523 21.1284
337.052 26.1249
338.027 3.49601
339.744 31.8781
341.032 7.78769
342.228 23.8738
343.273 42.3665
345.124 39.6072
347.406 10.3448
348.205 24.7787
349.065 16.5457
351.337 77.8586
352.440 12.0983
354.210 4.91902
355.150 23.3757
356.208 31.1741
357.229 87.327
358.030 31.4182
360.947 14.4037
361.703 34.9281
362.426 8.66496
363.189 16.1287
364.334 20.5242
365.325 14.382
366.050 5.98996
367.143 12.1492
368.135 27.6008
369.074 33.4246
370.254 24.0008
371.255 5.52514
372.172 33.0396
375.094 22.1193
376.878 34.5878
378.200 6.64112
381.340 24.4003
381.988 25.821
383.031 16.6379
384.237 3.7831
385.933 122.984
386.649 38.8497
390.322 878.453
391.367 129.601
393.271 95.9246
394.586 116.815
395.627 45.7572
396.474 56.8834
397.344 61.1149
399.228 107.188
399.948 36.4759
402.203 77.234
403.106 34.0932
404.234 32.11
405.048 24.8881
406.147 52.381
407.278 33.12
408.264 50.2848
409.651 98.4874
410.337 40.2268
411.234 12.9645
412.405 15.6243
414.318 380.661
415.249 71.9543
416.297 74.7724
418.234 46.858
419.430 39.3241
421.262 123.993
422.193 94.6968
423.150 60.1679
424.284 17.3652
425.547 26.2991
427.439 185.955
428.157 99.5645
429.186 86.6413
432.148 30.629
432.810 9.71916
435.695 100.307
436.424 81.8414
437.760 107.986
440.021 95.219
440.705 22.7305
441.451 16.4857
442.200 15.2295
443.008 20.3018
444.384 3647.59
445.382 139.632
446.716 103.398
447.839 58.8483
450.098 158.638
451.222 52.1167
452.141 3.48545
453.434 8.89284
454.623 28.1519
456.023 97.4403
457.103 61.186
457.928 52.43
459.587 78.3894
461.334 528.03
462.333 27.8768
463.346 10.9919
464.817 25.5632
467.079 248.687
468.236 314.539
469.203 50.1371
470.207 22.8138
471.538 37.3905
472.556 276.373
473.669 30.5777
474.559 35.5645
476.398 26.6207
477.354 32.6664
479.047 17.7317
480.416 112.698
481.322 14.7035
483.455 149.078
484.522 152.897
485.372 618.832
486.303 221.74
487.510 69.4812
489.002 89.5965
490.014 4.30404
491.605 7.19792
492.320 8.65242
492.980 57.8692
494.039 28.9307
496.441 185.418
497.732 111.337
498.559 6.25175
500.249 99.7162
501.535 146.385
502.962 1024.41
503.940 912.633
504.983 324.713
505.845 36.534
506.518 48.1871
507.405 109.827
508.508 62.0224
509.403 68.1461
510.204 54.3521
511.103 73.7268
511.838 32.3787
513.358 106.827
514.281 138.954
515.712 167.368
516.506 185.738
518.250 2786.83
519.110 1856.12
520.071 1004.4
520.966 410.818
522.093 23.3637
522.897 31.0945
527.001 1456.97
528.138 2149.55
528.950 819.145
529.848 118.781
530.451 73.5315
531.317 23.8651
536.403 10.6975
543.076 14.6831
544.344 6.03605
547.231 19.1645
552.310 10.4033
554.397 15.7831
556.281 706.885
557.327 218.892
558.318 51.1313
562.245 2.63123
565.849 28.7835
567.514 4.3717
568.260 18.5547
570.854 35.2813
571.553 19.9965
572.335 13.7243
574.638 60.0669
575.421 16.0327
576.676 43.0453
580.407 58.007
581.304 12.0263
582.448 23.9554
585.211 26.5033
588.210 20.3494
589.325 1857.92
590.332 541.624
591.633 20.6507
592.329 5.20192
593.311 8.36897
595.155 100.639
596.148 79.7554
598.231 20.3705
599.152 23.0107
601.426 18.9907
604.492 14.6889
606.448 5.19093
609.481 12.7802
611.117 21.5852
612.091 11.7622
613.347 175.357
614.356 115.667
617.421 16.8951
621.104 4.60749
625.234 36.0496
626.318 7.78877
627.615 17.5008
628.500 8.94317
630.251 7.79178
631.448 24.1117
633.378 6.92093
634.113 8.05787
637.391 45.3735
640.633 14.8605
641.792 3.20449
642.449 20.6483
643.292 43.2068
644.406 10.2256
645.674 5.80241
646.468 3.51856
647.356 30.0578
648.300 17.4811
649.491 25.7041
651.553 11.2836
654.663 11.6407
657.382 10.0332
658.534 11.2269
660.309 1936.11
661.349 469.594
662.201 34.5438
664.491 9.87977
666.160 254.221
667.639 118.182
668.436 14.8874
669.459 63.0226
670.226 59.6912
671.113 48.3288
671.987 37.8474
674.406 24.5971
675.463 69.1265
676.261 26.098
679.554 31.614
682.389 13.4598
684.282 503.101
685.383 109.977
686.503 44.7286
687.154 9.55255
690.403 63.3015
691.538 7.74362
692.219 8.43691
696.276 2.63979
698.692 3.21293
700.882 21.0946
701.537 11.1778
702.559 11.0536
703.745 10.5378
705.482 23.5704
706.168 21.1011
709.168 3.78799
710.525 21.8495
712.363 4.30181
713.473 7.60614
714.580 11.2716
715.418 3.78162
716.401 2.6377
718.388 267.949
719.571 5.7894
721.689 23.4845
723.397 97.7189
724.254 25.8676
725.509 33.0209
726.256 67.0716
727.178 20.1049
728.181 25.0145
729.102 21.7368
729.724 7.82032
730.532 50.6945
731.249 6.64408
732.434 77.9786
733.502 21.8747
734.219 19.6871
739.145 29.0601
740.179 8.61009
741.350 612.992
742.292 127.161
743.422 30.8448
744.318 27.7313
746.620 26.6572
747.310 10.2863
748.095 12.0584
751.603 3.50551
752.865 14.5594
754.235 45.4709
755.731 33.6982
758.344 5.51222
759.613 20.1544
760.587 18.3271
762.901 19.0754
765.388 72.6757
766.376 134.466
768.434 20.8362
770.487 67.8775
771.399 92.8672
772.318 81.0498
773.605 10.5991
775.199 19.5222
776.549 22.2341
777.551 7.20318
778.561 29.0034
780.186 4.36435
782.327 86.0523
783.410 30.1723
784.285 34.8269
785.539 60.3744
786.214 39.026
788.287 1451.05
789.374 477.73
790.365 75.7649
793.494 10.9546
794.243 8.36897
795.331 8.29824
796.122 9.45256
797.145 18.7551
798.321 20.9926
799.572 21.2471
800.391 4.11228
801.861 12.9205
803.420 57.1113
804.305 31.4769
805.390 23.2057
810.445 15.2148
811.410 21.7957
812.262 7.16003
813.235 13.5007
813.896 2.96099
816.542 32.2587
817.374 14.6965
819.009 21.3795
821.483 30.4287
822.213 13.1522
823.292 13.5082
824.249 14.5187
826.617 23.7971
827.557 29.4615
829.729 15.9857
830.642 29.8237
831.478 113.319
832.276 3.80874
833.401 20.7423
835.486 6.56799
836.384 20.3043
837.550 10.2722
838.948 26.4337
840.588 8.36994
842.600 18.0537
843.293 7.50128
844.462 20.9089
845.566 20.5709
846.426 6.3651
847.527 207.611
848.426 56.1828
849.356 21.3724
850.260 8.31012
853.221 243.086
854.245 69.4161
856.123 521.648
857.433 201.553
858.305 82.1841
860.234 4.68947
861.538 14.0307
862.223 18.0552
864.410 6.64875
865.408 5.5035
866.286 33.5624
868.926 9.44378
869.687 38.1166
871.386 26.0025
872.972 13.6025
877.354 2.64079
880.086 2.35301
883.541 14.3073
886.857 187.47
887.473 941.63
888.440 361.757
889.436 61.3621
891.065 9.42714
891.681 15.8379
892.547 7.20286
894.735 5.31946
895.530 3.21709
896.449 5.81132
897.265 22.7557
898.430 18.0074
900.221 115.855
901.721 118.059
902.476 21.0459
904.386 40.9051
906.484 5.54985
909.205 111.98
909.844 2.2993
911.346 24.9949
914.429 52.7614
916.923 11.2371
918.610 77.711
919.245 40.5034
921.106 4.35938
924.455 42.7919
925.840 14.8955
926.608 37.1597
927.415 393.653
928.466 396.711
929.451 133.215
933.477 6.55194
935.192 8.59957
940.569 10.5751
942.503 61.5108
944.621 79.6143
945.949 142.645
946.817 14.4398
947.557 22.225
951.454 2.63792
953.622 10.5923
955.534 19.5795
977.960 12.8563
986.749 16.0159
1015.178 29.8843
1016.474 7.99608
1035.475 10.2079
1036.170 27.5149
END IONS

BEGIN IONS
TITLE=Spectrum1119 scans: 2852,
PEPMASS=810.39655 439849.65625
CHARGE=2+
RTINSECONDS=2339
SCANS=2852
229.074 7.23787
232.220 7.14645
233.243 25.27
233.883 20.6978
240.173 38.3078
244.166 8.05901
245.212 9.43055
245.986 64.0048
248.865 5.89318
250.213 3.89325
251.039 12.0452
252.258 56.5376
253.044 10.3207
254.069 12.4976
255.042 20.2725
255.982 6.23369
259.210 17.6495
260.306 8.331
261.324 5.04935
262.208 14.4578
268.115 87.1882
268.957 30.4043
272.160 8.71216
273.027 52.7213
274.253 43.5847
276.235 15.443
277.297 56.5942
280.257 13.7809
282.118 5.37169
283.410 10.1525
285.008 9.73071
286.107 72.9878
287.382 66.2526
288.107 38.4125
290.211 5.59597
292.323 3.31178
296.380 13.0343
297.278 10.06
298.358 10.1094
303.200 26.8899
304.199 33.282
306.089 5.38341
309.548 4.39105
311.915 3.90123
314.226 39.3947
315.223 27.7746
316.100 9.83418
318.106 35.1496
319.236 20.6769
320.353 11.3582
321.315 3.30499
322.128 27.0736
323.367 33.0989
324.328 31.9446
325.332 4.4872
327.401 10.6332
328.710 14.4733
330.997 7.1576
332.159 3.94123
333.434 13.729
336.197 10.5183
337.057 29.8952
339.788 56.1804
340.724 17.7452
341.345 75.0936
342.291 24.4107
343.343 8.99709
344.331 21.5977
345.202 42.4243
346.248 16.2246
347.266 8.27244
349.853 16.8748
351.286 4.41319
352.433 12.1884
353.154 34.4052
355.735 16.9568
357.363 118.948
358.359 29.4174
359.278 54.4781
360.237 9.85713
360.939 44.9806
362.194 10.3337
364.947 7.1492
366.123 2.71721
367.524 28.1334
368.350 14.9423
369.268 34.8023
370.104 21.2392
371.264 54.817
372.279 9.77784
373.170 9.20187
375.215 85.7791
376.299 71.9104
378.311 24.4353
379.263 18.7295
380.072 13.2801
381.255 69.2459
382.269 51.744
383.549 5.87795
385.176 218.285
386.115 143.396
387.238 17.8144
388.338 46.4228
389.242 59.8069
389.936 86.6979
391.157 24.168
392.550 6.25135
393.316 17.0419
394.300 3.00618
395.446 22.1967
396.488 8.32954
398.195 42.8786
398.846 1.73975
400.218 343.296
401.215 80.9612
402.307 28.5746
403.268 3.01352
403.966 7.05499
404.599 8.92732
406.234 85.5594
407.125 115.984
409.208 5.87617
410.105 25.3162
411.288 3.31693
413.203 84.525
414.247 11.6989
415.235 12.4114
417.379 13.4024
418.217 14.4527
419.330 30.8513
420.281 5.66982
422.114 17.9477
423.521 13.6539
424.453 53.509
425.254 48.7921
426.050 25.8366
427.379 20.4837
430.741 18.3051
431.419 4.78459
432.341 33.5022
435.247 52.4369
436.286 5.90154
437.156 73.0857
438.078 14.2962
442.359 28.4998
443.673 111.552
444.579 15.871
448.615 55.2063
449.372 20.6008
450.594 5.36918
453.045 42.1596
454.294 11.2156
455.513 8.92197
456.255 2.18985
457.170 72.6188
458.082 15.5529
459.188 82.012
460.303 28.4818
461.239 27.0837
462.274 92.8336
463.160 35.1783
464.435 34.0052
465.160 65.1273
467.156 4.7942
469.132 15.0833
470.098 31.2277
471.060 32.3957
472.339 29.9012
474.160 11.845
475.282 49.8343
476.148 29.1018
477.314 53.6541
478.400 79.6254
479.324 337.257
480.341 172.314
481.322 37.1796
484.395 63.6056
485.346 72.3172
488.228 53.6468
489.293 87.6048
490.337 50.6489
491.699 25.4164
494.274 8.48372
495.158 16.2884
497.295 8889.92
498.284 1711.33
499.281 206.278
500.214 32.2241
503.128 131.006
504.544 11.791
505.322 70.8928
506.334 30.3435
508.591 23.0895
511.578 9.50606
512.618 30.947
513.302 31.1675
514.162 52.3929
515.945 89.9612
517.188 15.5767
518.136 39.5819
519.691 56.2548
520.397 155.465
521.159 33.2533
522.147 26.5884
524.533 3.00821
527.278 37.9517
530.219 222.554
531.156 112.555
532.176 85.0194
533.138 40.8502
534.282 87.5253
534.974 9.99952
536.505 242.129
537.486 73.9501
538.419 66.7234
540.085 35.2469
540.995 54.7063
542.318 63.0615
544.525 4.49124
546.286 35.482
548.346 434.43
549.493 59.996
550.170 12.6802
553.797 27.2948
556.867 21.9687
558.021 24.2229
559.902 29.9164
561.547 4.18788
563.549 104.653
564.707 34.1919
565.460 3.89603
566.081 10.6147
567.133 53.594
568.752 3.9314
571.201 17.5283
572.196 16.5107
573.179 36.7693
574.368 34.0839
575.357 29.6971
576.032 134.677
577.414 25.0587
578.241 6.26655
579.785 22.7503
581.065 80.8008
582.533 35.0901
583.624 38.3822
585.422 9.64617
587.285 144.185
588.424 61.39
589.282 14.674
590.353 58.7844
591.781 7.18633
592.811 31.8498
593.674 35.3667
594.682 46.5303
597.584 70.5564
599.379 24.8576
600.537 60.5862
601.384 34.5235
602.567 29.1452
603.416 14.3391
604.743 30.4709
605.472 58.3716
606.427 9.84656
607.429 41.4911
608.581 83.0096
609.481 109.369
610.397 123.941
611.853 5.97397
613.072 37.1922
615.326 51.3647
616.427 12.4314
617.215 95.2735
618.536 948.215
619.386 211.653
620.498 35.6967
621.343 13.7149
622.348 4.78938
622.967 28.9384
625.576 69.7735
626.380 548.068
627.466 172.765
628.207 83.1064
629.785 129.425
631.107 23.5055
632.366 8.33112
633.405 26.3433
634.409 207.285
635.322 56.3266
636.501 33.5717
637.580 11.5275
638.539 77.3742
640.233 54.1142
641.278 74.4807
642.888 34.052
644.316 12.0941
645.227 44.3173
646.331 79.5881
647.244 84.0068
649.531 8.62357
650.551 33.5233
651.398 38.6029
652.382 42.2622
653.884 27.6735
655.108 50.0286
658.850 108.305
660.282 36.7432
662.206 12.6974
663.336 78.8837
664.136 32.6779
665.630 52.4846
666.618 16.1265
667.728 401.451
668.581 389.359
669.856 22.4897
670.548 10.3237
671.603 23.4985
673.431 51.6545
674.445 31.6525
675.237 8.84904
677.039 46.9109
678.727 54.0966
679.411 7.15851
681.119 122.316
682.404 66.4908
683.429 31.7034
684.668 11.2694
686.143 91.8109
687.297 69.9245
687.991 68.1755
688.954 11.1927
689.737 16.7238
690.415 30.3368
691.658 3.89838
692.765 32.4518
693.890 33.0576
694.890 25.7242
696.279 53.173
697.441 77.709
698.353 16.4534
701.370 11.8206
702.898 17.2374
704.372 13.8714
705.291 45.3399
706.544 19.6142
707.301 11.2101
707.933 48.4521
709.377 24.4876
710.340 14.4639
712.459 21.563
713.376 36.0153
714.539 103.976
715.436 83.2157
716.257 108.756
717.487 101.402
718.441 45.8664
719.543 12.1007
720.479 20.8625
721.155 13.9458
722.275 110.572
723.240 50.8158
724.510 414.434
725.453 275.821
726.386 83.6845
728.118 23.0143
729.534 30.8709
730.184 58.1342
731.400 35.9177
732.433 43.8619
733.269 86.3504
734.328 93.5904
734.933 19.8276
735.606 97.2109
736.374 12.4054
737.021 45.7655
737.720 54.4357
738.405 15.2054
739.470 108.414
740.402 657.562
741.524 67.7567
742.465 15.7887
743.239 29.3142
743.978 4.19383
744.678 19.7083
745.451 71.4504
746.129 19.6731
747.456 1227.44
748.580 56.9807
749.380 82.4305
750.207 55.7068
751.047 38.4266
752.636 29.2544
754.308 20.9649
756.344 27.4239
757.628 70.1283
758.697 96.8672
759.452 9.60709
761.698 64.6957
762.336 47.888
763.668 9.19086
765.492 430.838
766.519 166.11
767.367 121.419
768.632 38.4075
770.107 134.401
771.378 28.2163
772.020 30.9885
772.749 15.9495
773.417 64.1049
774.544 335.14
775.444 168.252
776.381 136.864
777.581 49.4364
778.729 559.145
779.623 330.78
780.887 49.3927
783.176 24.7608
784.233 91.815
786.496 24.6393
788.548 108.003
789.558 27.4871
790.172 40.2907
791.390 922.214
792.462 1354.76
793.412 1145.27
794.472 328.718
796.133 124.111
796.803 41.1386
797.451 39.8949
798.664 34.5631
800.714 152.237
801.658 933.702
802.503 3.39368
816.548 10.3481
818.601 9.79344
821.877 25.328
822.593 12.4649
823.225 16.2337
829.379 9.73247
835.347 19.7297
836.286 23.3633
838.132 40.0398
839.659 20.5291
841.378 50.7552
842.271 7.12929
845.539 24.1749
860.029 8.87153
861.526 14.8601
862.488 95.9933
863.490 15.778
864.754 24.6911
868.904 17.2194
870.346 48.5327
871.337 28.5669
872.526 7.75163
878.463 396.646
879.628 82.5016
880.384 227.139
881.503 91.5476
882.306 9.51141
887.483 447.785
888.650 173.27
889.544 27.3686
890.473 14.0881
891.567 44.1033
893.423 46.7863
896.659 13.2013
900.608 7.41793
903.271 21.4284
907.778 11.5414
909.520 14.4486
910.397 8.15443
911.937 3.60943
914.789 4.48545
915.572 19.4536
919.308 11.9822
920.478 12.2947
921.829 5.38053
922.605 10.6973
925.365 17.7004
927.206 10.0984
928.416 3.89386
930.144 19.5797
933.162 40.5548
936.230 22.2888
942.293 32.3254
949.399 39.7653
951.833 44.5189
952.531 5.17302
953.769 18.0242
960.449 29.5907
961.351 25.1871
963.488 19.8558
966.746 8.51418
970.525 5.38207
971.412 51.2892
976.917 111.353
977.592 180.881
978.886 60.2565
979.657 14.2646
980.271 5.332
981.386 18.9112
983.432 9.16916
984.292 13.5984
985.471 25.9395
986.847 7.11218
988.624 16.3099
989.480 9.32548
990.566 20.4028
991.541 47.1855
994.267 243.19
995.360 154.576
996.464 51.0183
997.700 61.9036
998.483 74.6211
999.954 48.0685
1001.252 66.2184
1002.102 5.01222
1003.165 11.5995
1005.329 31.4215
1006.285 32.7032
1007.275 16.0168
1008.286 27.0841
1009.242 26.4111
1010.200 25.1867
1012.536 6.19953
1014.089 31.6734
1014.722 5.30246
1015.599 307.938
1016.550 194.046
1018.544 40.5195
1020.318 40.2692
1021.610 39.6135
1025.138 24.5954
1026.335 16.9866
1030.635 43.0214
1034.894 13.2648
1037.684 10.3793
1038.434 13.0384
1042.071 22.871
1043.410 80.7436
1044.346 15.6941
1054.411 62.4605
1055.364 188.832
1056.459 104.729
1059.196 45.7916
1060.359 153.76
1061.495 31.5319
1062.215 30.0044
1064.180 41.7972
1065.335 13.063
1068.383 17.6292
1070.427 37.7884
1072.440 1520.35
1073.413 779.442
1074.520 339.663
1075.408 15.7644
1077.197 4.4895
1078.491 26.6248
1079.210 40.286
1081.285 6.8576
1082.050 4.18339
1087.245 25.7969
1088.526 225.626
1089.396 87.3805
1090.644 106.568
1091.415 3.56776
1095.881 22.2313
1097.743 8.32312
1098.815 19.2647
1101.827 4.78029
1102.536 15.0979
1105.283 876.982
1106.331 1502.83
1107.340 779.672
1108.390 227.497
1113.602 7.68203
1118.446 12.4323
1123.387 4839.61
1124.403 2058.11
1125.377 1006.04
1126.370 76.2221
1127.519 12.415
1131.611 10.6465
1133.685 7.07734
1142.345 21.6299
1145.707 6.85239
1152.153 21.979
1153.846 5.97615
1156.772 3.90291
1158.346 9.45603
1170.483 7.07535
1171.566 22.3809
1173.294 22.7045
1175.418 16.0449
1178.514 6.91612
1181.475 8.91356
1185.356 61.7472
1186.494 25.0356
1188.656 9.32967
1193.360 5.60481
1196.700 17.4345
1200.461 13.5689
1202.491 30.0171
1203.686 14.1122
1204.500 32.8541
1205.512 29.7542
1206.486 8.14041
1208.171 6.27243
1215.906 39.4842
1217.137 40.8404
1218.332 36.0961
1219.167 61.0513
1220.207 187.439
1221.302 259.174
1222.153 85.6538
1231.333 8.43942
1233.022 4.12262
1235.550 1643.73
1236.601 788.463
1237.589 203.038
1238.437 9.46037
1240.261 16.8522
1241.519 3.60482
1250.558 19.1267
1255.248 10.1205
1257.362 34.5897
1259.519 13.6163
1273.132 7.24909
1274.644 10.6164
1275.433 10.6314
1277.820 10.6064
1278.697 7.38269
1284.419 18.1423
1286.772 35.853
1287.660 37.7636
1291.037 4.16952
1292.005 8.94659
1292.642 6.56779
1293.662 8.43101
1294.898 2.99803
1296.661 8.72466
1300.591 13.761
1308.403 29.6618
1309.801 25.6699
1310.568 21.6923
1314.548 2.4111
1316.704 10.0411
1317.353 31.154
1318.478 84.1044
1319.142 5.3911
1321.347 6.27074
1322.853 14.4761
1326.725 21.3949
1327.627 29.5655
1328.545 9.79276
1334.716 64.7132
1335.460 64.4702
1336.490 15.6623
1337.167 16.5203
1343.591 20.7618
1344.586 19.0223
1345.401 3.01195
1347.026 20.3673
1348.699 14.4902
1356.435 69.4181
1358.312 69.8496
1364.196 7.67647
1370.630 10.3125
1371.579 2.71617
1374.536 173.376
1375.551 38.1319
1376.663 19.6143
1377.458 7.65519
1391.331 10.2414
1395.963 15.9253
1409.524 58.7444
1410.347 6.46907
1412.800 15.5737
1421.296 19.285
1422.594 26.1632
1425.697 8.5658
1427.780 92.8482
1428.505 42.0744
1429.638 53.9345
1436.899 9.29467
1438.225 3.90814
1440.671 18.5202
1443.261 43.8161
1444.141 9.73013
1445.372 282.361
1446.430 258.266
1447.439 238.161
1448.104 9.45654
1452.428 3.90109
1455.148 6.616
1456.616 11.2325
1457.781 10.6328
1458.844 28.637
1472.716 27.3195
1494.652 20.6917
END IONS

BEGIN IONS
TITLE=Spectrum578 scans: 1936,
PEPMASS=488.72815 1076167.25000
CHARGE=2+
RTINSECONDS=1889
SCANS=1936
143.207 32.8783
146.072 98.7603
147.004 19.5066
155.006 38.867
156.209 187.143
157.075 110.965
158.224 76.8765
158.902 21.114
165.063 54.3431
169.030 58.3325
170.889 94.608
172.133 112.58
172.948 26.5267
174.984 528.098
176.115 109.642
178.049 15.4199
180.255 18.0815
181.109 78.2485
182.362 11.6796
183.236 62.8071
185.016 39.2107
186.199 148.948
186.955 40.4564
189.977 16.6624
191.063 52.3414
194.150 18.2858
197.110 76.9142
199.117 20.83
200.127 41.8962
201.165 7.4266
202.121 54.458
203.290 90.787
204.334 16.2557
205.010 65.0584
208.092 10.272
209.338 75.5572
211.159 21.4691
211.983 28.4116
213.148 104.348
215.034 72.3485
216.271 37.1013
217.071 37.1051
218.321 74.0554
219.085 157.148
220.168 34.7156
220.910 43.7181
225.146 55.2003
226.262 211.899
227.198 72.2143
228.008 54.9702
229.101 99.0337
229.905 48.9057
230.956 854.993
232.047 64.7398
239.394 23.0306
240.186 18.0754
242.209 36.0123
243.078 130.622
244.251 238.964
245.251 34.6674
246.183 71.57
247.596 97.3948
248.337 129.661
252.154 78.3106
253.190 140.712
254.245 92.7179
255.207 49.8062
256.268 60.6666
257.064 12.4059
258.225 89.2699
259.967 117.745
261.337 12.4005
262.185 73.5159
263.226 52.4586
265.131 58.3349
270.155 153.547
271.138 567.422
272.114 3184.54
273.133 209.093
274.098 130.095
276.035 2477.34
277.173 432.554
284.386 45.5891
285.077 8.924
286.063 32.0364
288.229 9528.02
289.276 5291.01
290.248 368.394
291.040 234.087
292.009 48.904
293.063 102.374
294.292 77.6992
299.329 75.096
300.101 54.1999
302.185 658.904
303.141 172.506
304.275 144.442
307.291 20.0691
311.294 43.0654
312.454 56.2883
313.213 101.668
314.054 23.602
318.086 30.4203
319.133 3067.67
320.119 590.847
322.147 10.2759
322.853 19.4985
325.244 22.5913
326.528 42.6572
331.132 122.245
332.339 12.4007
333.229 24.4522
335.269 231.854
336.486 51.26
340.194 30.758
341.297 129.061
342.054 17.7805
343.306 2223.76
344.267 215.675
345.231 34.2543
347.111 4277.16
348.047 641.718
349.035 20.0516
351.334 448.065
353.153 47.5208
357.023 106.701
358.250 65.8225
359.164 224.533
360.023 45.541
361.344 34.1347
363.268 12.3942
366.993 139.268
368.249 39.1825
369.452 37.8422
371.421 137.855
373.516 90.1888
374.348 113.625
375.342 48.4927
376.092 370.592
377.228 181.496
378.336 69.4521
379.543 75.7227
380.797 147.448
381.825 31.5636
382.838 103.754
385.150 172.869
386.074 193.766
388.329 40.6914
389.106 64.7737
390.209 69.783
391.154 46.8383
393.014 86.0622
394.138 19.3299
395.154 50.9206
397.159 26.1152
399.120 296.272
400.083 82.3092
401.257 367.138
402.526 329.676
404.150 1623.13
405.214 84.3413
406.299 85.6582
407.586 111.688
410.893 38.5134
411.926 34.0134
413.227 53.5745
414.205 117.847
415.792 54.0712
416.592 178.909
417.284 63.0716
418.212 28.9434
419.191 25.1704
420.518 126.043
422.666 179.159
424.866 7298.11
425.889 96.8959
427.306 300.777
428.077 32.3427
430.085 697.808
430.970 227.693
432.045 304.901
432.859 220.324
433.471 93.0553
435.310 216.9
436.463 242.644
438.347 46.7082
440.056 109.821
441.326 14.575
442.118 135.445
443.424 61.4756
444.692 225.585
445.516 41.9503
446.377 76.3597
448.375 380.411
450.296 23.6243
451.584 52.2278
452.620 241.544
453.379 580.257
454.429 438.879
456.057 46.7273
456.803 231.906
458.267 2350.12
459.360 368.109
460.270 40.9554
461.480 125.251
462.333 185.315
465.056 178.009
466.009 233.363
467.052 351.177
468.494 115.536
469.547 187.731
470.507 793.942
471.295 1517.7
472.304 106.572
473.716 158.749
474.520 101.888
475.824 159.454
477.058 225.479
478.718 2469.03
479.851 4053.91
480.739 367.749
481.350 23.5047
496.201 17.9519
501.137 354.754
502.806 126.148
504.096 30.4188
506.092 135.152
506.831 9.64486
509.214 26.4301
511.222 65.9001
512.392 101.51
513.108 51.4978
516.217 8.13569
517.823 58.327
518.474 83.118
519.142 931.95
520.351 321.117
521.335 41.318
523.945 57.7438
526.922 25.2877
530.413 26.7085
531.372 26.4929
532.124 78.164
533.161 6.72696
534.289 17.7296
535.480 41.5865
536.416 45.4735
538.561 31.7086
543.606 39.0133
545.096 45.5361
546.226 50.062
547.295 18.6372
549.549 13.9118
551.544 15.0816
552.382 39.9426
553.240 28.3815
554.334 128.587
555.295 237.382
556.209 172.909
557.218 60.2157
561.264 181.029
567.351 25.9852
568.387 32.5354
570.484 14.5205
571.345 28.9025
573.256 2809.57
574.324 923.814
574.935 19.6381
576.520 39.5078
577.234 58.5437
578.269 92.0897
579.167 8.14863
580.174 10.2689
582.960 145.335
584.296 43.3115
586.321 104.471
588.196 232.905
589.352 123.313
591.020 14.5066
592.219 33.6255
598.365 125.048
599.252 54.0306
601.312 18.775
602.405 35.8757
603.505 26.8182
604.752 74.9591
606.135 128.693
609.348 15.9534
611.136 40.041
612.360 208.863
613.383 10.2522
614.426 95.1987
616.267 444.246
617.198 175.979
618.058 15.1955
619.519 18.7894
621.426 16.0262
622.149 39.2406
626.233 89.5234
627.072 56.2687
628.336 49.5623
630.314 16955.2
631.321 5455.28
632.331 376.276
634.254 1666.09
635.240 496.855
636.362 48.7765
637.148 51.8737
638.018 31.0791
639.113 222.885
641.223 42.5008
642.095 90.5394
642.961 10.841
645.321 90.909
650.546 70.9487
651.341 21.7144
653.398 77.3175
655.766 38.1575
656.472 53.8129
657.311 30.6943
658.622 55.5318
660.442 75.8335
661.752 9.68237
665.547 25.7535
666.550 48.4272
667.196 42.1302
668.440 219.079
669.447 170.311
671.367 20.0387
672.380 29.9684
674.754 126.369
675.614 100.296
676.358 117.603
677.419 70.4922
681.789 41.5043
682.460 83.8414
683.481 114.317
684.754 935.272
685.556 6271.87
686.448 13297.3
687.451 3756.2
688.340 1055.93
689.327 655.519
690.420 63.9453
691.159 46.5065
696.090 85.0447
701.332 8106.83
702.382 2355.48
703.399 79.4072
705.267 1453.83
706.317 502.808
707.402 23.0426
709.446 39.1898
711.667 15.9444
712.456 16.2112
713.516 15.9609
714.437 18.0853
716.757 32.3865
717.686 96.0504
720.195 38.7557
725.809 26.0872
727.361 97.7623
728.623 23.5808
729.618 61.0648
731.327 78.6686
732.399 119.068
733.387 299.5
734.416 131.602
739.585 64.1958
740.763 37.1791
741.650 31.6269
742.627 113.191
743.418 105.524
744.841 10.9187
745.631 102.444
747.687 46.7785
750.427 96.4791
751.459 60.7613
752.818 8.13239
757.486 33.1084
758.413 67.8188
759.326 37.1271
760.277 230.815
761.263 73.9017
762.210 80.0639
763.502 404.842
764.251 75.5084
767.057 66.9215
767.966 90.2799
768.852 21.667
771.576 64.8673
773.575 10.9741
774.331 38.8448
776.306 130.081
777.452 110.638
780.553 33.6722
782.182 32.5301
784.442 30.4179
785.651 34.2727
786.533 10.9655
789.119 61.7789
791.021 353.532
791.784 67.8152
792.603 79.672
799.617 191.947
800.471 68.174
801.402 28.6903
802.331 260.364
803.455 185.723
804.486 73.9672
810.281 17.3258
811.246 22.3421
814.583 84.8957
817.328 73.909
825.265 10.2702
827.601 22.408
831.189 26.6692
837.566 33.8186
842.437 30.2082
843.202 113.717
845.353 55.0891
847.233 14.5865
848.426 401.813
849.668 83.1887
850.690 88.247
851.404 28.7188
864.511 49.5657
865.670 16.9379
872.229 67.9749
881.325 59.9794
885.565 8.84285
886.577 14.5281
890.627 34.1656
905.827 177.656
906.621 26.8232
926.026 38.7725
935.099 41.0287
950.038 54.8101
END IONS

BEGIN IONS
TITLE=Spectrum2480 scans: 5070,
PEPMASS=681.35083 279767.31250
CHARGE=2+
RTINSECONDS=3402
SCANS=5070
197.060 20.6724
210.726 8.41347
212.178 4.98572
214.181 8.68979
217.018 19.0269
219.190 105.39
220.244 4.70083
221.419 4.76828
224.081 9.85575
226.205 3.82277
228.228 2.74354
229.203 36.0104
229.826 11.135
231.125 17.8496
232.236 144.643
233.168 41.6028
242.111 6.08389
243.227 5.28273
244.124 6.67922
245.143 6.91349
247.128 168.513
248.174 43.8208
249.265 15.7191
251.363 10.44
252.159 8.75308
253.244 10.3511
255.179 8.70242
257.237 13.1286
259.168 4.11014
260.095 3.66934
261.401 3.71396
262.033 6.00185
263.075 16.5571
264.161 10.7657
265.029 3.17945
266.374 24.0754
268.060 11.0995
270.078 34.4333
271.256 10.8505
273.253 4.54181
274.133 6.25796
275.138 40.0524
279.603 3.365
280.314 34.6717
281.204 10.4372
282.278 27.6638
285.111 4.33715
286.315 19.1686
287.072 2.30964
290.418 23.4431
291.064 6.96472
293.039 6.64138
295.244 3.1797
297.293 10.1791
298.075 37.8386
299.268 11.7719
300.044 14.0638
303.151 165.217
304.309 6.78524
310.040 19.9706
312.171 22.3446
313.074 4.70046
315.346 19.6128
316.290 7.96456
317.242 15.6124
322.257 15.5575
325.296 3.60447
326.099 14.8097
330.098 21.613
331.199 33.6556
332.765 2.81306
335.110 3.89353
338.195 52.5528
339.290 35.6963
342.326 18.2521
344.131 98.3865
345.062 35.4503
346.292 7.29545
348.946 12.8274
350.276 11.3222
352.200 28.5066
354.219 13.8061
355.124 9.99437
356.236 19.575
357.236 17.7448
358.995 6.65744
362.185 365.606
363.191 57.5846
364.247 20.1654
365.111 17.4039
367.287 23.8008
372.091 11.902
374.218 900.517
375.309 154.32
376.200 46.253
377.082 18.3817
379.130 20.9186
381.005 15.2549
382.176 6.28696
383.076 30.4036
384.148 34.374
385.279 36.0443
386.177 12.6002
387.949 44.6144
389.406 9.70584
390.682 23.5093
391.949 10.055
392.869 26.6795
394.261 31.0404
396.961 2.30346
398.073 3.98767
399.046 34.699
401.178 36.2272
403.153 3.11823
404.392 21.3804
406.374 10.1198
407.064 7.04845
408.322 12.8987
409.187 8.03803
410.229 33.5462
411.276 69.9163
412.343 22.3131
413.336 35.4916
414.289 31.0788
417.238 10.615
420.366 2.96205
422.639 34.2732
426.398 3.29005
427.285 36.9821
428.563 31.9095
430.158 4.91832
432.490 22.7131
433.221 9.87638
434.088 23.0934
435.616 17.5766
437.096 2.09985
437.994 8.98002
439.416 49.1415
440.352 65.1821
441.079 35.5357
442.405 9.52329
443.422 44.7563
444.589 14.6109
445.240 92.927
447.037 177.871
448.097 76.6304
448.973 111.625
449.727 40.232
450.393 11.1852
451.301 23.9791
452.324 12.1347
454.339 34.5827
455.097 40.5174
456.191 75.0644
457.238 102.847
458.036 99.3624
458.879 219.489
459.988 60.607
460.721 14.8094
461.377 15.8838
463.099 16.4935
464.213 7.29383
465.352 12.8964
466.073 27.6284
467.253 22.8759
467.988 1.43101
469.138 22.841
471.247 14.3156
474.556 28.9242
475.184 446.193
476.214 116.969
477.260 69.9917
479.724 9.64917
481.145 6.92135
482.178 39.9489
484.072 56.4762
487.338 205.849
488.247 79.8874
491.274 11.585
492.327 24.8006
493.349 23.5634
494.221 24.2677
495.493 17.9025
496.510 5.35722
498.318 14.8331
500.616 13.4629
502.654 25.4262
503.857 42.6564
506.427 43.8674
508.224 5.4632
510.415 2.09383
512.280 105.515
513.380 118.595
514.120 35.5382
515.098 24.2781
516.368 21.086
518.232 126.389
520.473 18.255
521.326 20.5056
523.185 19.2589
526.474 113.102
527.954 85.1283
528.620 84.3745
529.272 6.43046
530.001 22.1428
531.271 149.997
532.134 164.947
533.081 118.464
534.002 19.8947
535.396 14.7237
538.160 13.417
540.185 100.777
541.023 22.5963
542.293 30.6487
542.986 14.0063
544.209 30.0954
545.200 36.8322
546.236 101.262
547.725 90.9112
548.743 103.472
549.447 75.0575
550.337 24.5774
551.189 43.2222
552.302 78.4009
553.281 82.3263
554.981 54.8494
556.291 10.1784
558.200 740.918
559.258 282.741
560.292 97.5282
561.323 38.0103
563.833 14.0218
565.075 19.054
565.971 12.8446
567.099 50.0384
568.170 53.7437
568.852 39.8356
569.893 52.0923
570.779 45.139
571.381 3.93429
572.245 18.3875
573.094 13.5171
573.931 13.2825
574.631 10.9309
576.174 1224.86
577.170 302.696
577.790 21.4242
578.413 104.827
579.407 31.2765
580.414 5.90776
581.243 58.8212
582.553 5.82504
585.285 23.0071
586.953 65.4729
587.942 49.0582
589.684 14.8545
590.335 15.2863
591.725 24.3137
593.612 69.0309
594.654 127.219
595.355 104.988
595.957 37.5129
598.320 3.29477
599.143 6.89301
600.450 36.9887
601.373 15.4005
602.696 17.8729
603.350 5.17071
604.519 89.4736
605.521 29.0584
606.370 16.4254
607.368 7.36589
608.636 182.611
609.376 97.9244
610.078 34.8936
611.262 31.4993
612.320 6.41621
613.414 133.328
614.972 210.292
615.919 98.2144
616.869 54.1658
617.567 15.0652
618.659 13.6576
619.984 54.9583
620.946 15.7471
621.798 28.3669
623.065 30.8888
623.895 75.4438
625.408 38.165
626.182 48.7517
627.060 74.9298
628.190 16.1801
629.705 82.7699
630.564 47.4452
632.260 204.5
633.015 32.66
633.687 16.1183
635.608 38.8957
636.357 63.8529
638.199 354.399
639.048 162.693
640.332 160.517
641.131 139.104
641.769 9.31821
643.194 201.897
644.070 91.2192
645.057 68.8768
645.906 27.7914
647.204 72.5626
649.573 513.619
650.416 155.487
651.260 7.30892
652.020 56.618
653.615 67.1991
654.430 1.84866
655.187 60.2465
656.208 19.419
657.377 155.123
658.197 65.8626
659.214 26.7356
660.199 37.1985
661.258 50.171
662.286 165.98
663.456 595.735
664.379 194.104
665.707 167.679
666.488 30.3353
667.641 79.5442
668.366 61.0709
669.310 54.1027
670.372 48.7708
671.189 215.878
672.430 1158.56
673.562 57.0788
674.260 2.74889
675.174 4.48442
678.942 5.84183
686.636 2.29271
688.705 8.01253
690.421 18.2666
695.203 24.8226
697.183 15.1887
698.400 2.98921
702.179 11.0546
703.581 8.50555
705.251 10.3511
706.520 29.5107
707.487 53.5526
709.735 12.3213
710.615 15.366
715.094 12.475
716.547 27.9618
717.328 19.7649
718.341 16.1865
719.877 4.69041
721.550 8.16468
724.676 15.2603
725.378 40.397
726.072 17.3287
727.663 50.8611
728.518 16.0443
730.673 12.8829
731.869 18.2201
733.789 626.447
734.738 120.546
735.339 11.7505
736.662 53.5114
738.330 5.68013
740.287 10.1893
741.162 9.08154
742.275 26.2307
743.044 13.1072
745.611 5.926
746.837 22.1815
748.161 155.69
748.867 127.773
750.625 17.3633
751.529 46.626
752.227 19.1223
753.160 3.72288
754.792 11.2351
756.527 38.5635
758.290 5.1821
760.592 21.1105
765.473 4.73015
766.798 502.724
767.484 182.24
769.100 4.04896
770.327 56.5626
771.454 10.372
772.613 10.4134
773.889 30.6052
775.279 38.0306
777.446 13.4587
778.380 26.6824
779.303 48.1464
780.573 23.9894
782.030 27.035
782.759 44.6352
783.572 40.0118
786.389 3633.25
787.465 1436.62
788.468 360.361
790.891 359.309
791.826 196.88
792.781 39.7454
794.317 102.549
795.316 32.7311
796.485 20.957
797.411 8.56141
798.630 55.6844
801.482 30.9772
802.487 15.1004
804.646 11.6908
806.384 51.7345
807.430 27.4852
808.245 238.093
809.331 78.0011
810.366 46.9969
813.027 22.0799
814.109 62.4067
814.972 104.768
816.107 18.2194
817.159 5.95823
820.111 295.247
821.068 75.0189
822.061 104.265
822.888 21.1934
824.401 52.6227
825.712 9.94738
826.322 4.15411
827.511 216.82
828.767 33.3172
831.550 7.34235
833.302 206.124
833.919 95.196
834.633 29.6721
836.704 32.5501
837.489 7.32529
839.562 3.65775
840.256 10.1202
841.905 34.9574
842.963 11.7164
844.690 2.52753
850.975 21.9972
851.740 9.92987
852.714 30.9236
853.890 63.5394
855.178 16.5819
856.295 59.0121
857.466 155.644
858.683 134.302
859.320 14.0635
860.771 2.09213
861.560 14.1138
864.159 32.5539
868.578 25.4621
869.541 47.7484
870.370 46.5692
871.215 21.4431
873.060 73.1843
875.272 78.9175
876.109 40.0352
877.267 38.7453
878.487 63.2183
879.313 104.668
881.259 18.9265
884.152 8.33907
885.635 35.9856
887.413 1427.79
888.503 639.621
889.479 185.945
890.480 31.7399
891.410 7.06807
892.685 6.00302
893.799 16.9516
894.420 6.54263
895.639 42.4767
896.334 18.4642
897.392 28.247
898.477 15.5308
899.192 9.32026
901.658 20.9329
903.034 30.4381
903.812 4.926
905.431 20.4577
906.322 6.13265
907.517 118.196
908.583 8.2911
909.694 33.8054
910.737 7.84099
911.390 6.56169
912.564 10.1672
913.226 24.7553
913.872 16.4337
914.566 17.9871
916.392 135.842
918.529 32.7844
921.146 162.526
922.045 39.1952
922.777 42.1634
923.752 23.0717
924.916 50.6601
926.548 3.86309
929.533 14.271
931.448 9.50076
932.567 12.5478
933.660 19.0995
935.711 6.70121
937.759 9.88696
938.856 10.407
942.676 62.9264
944.215 28.6787
945.316 24.3264
946.377 15.1707
950.695 8.88939
952.571 3.85214
955.502 19.7402
956.205 9.75324
958.330 20.8348
959.669 4.05031
960.639 14.649
961.659 18.1313
965.455 4.75294
970.151 189.01
971.097 108.691
971.769 11.0886
972.438 55.2225
973.341 43.6633
976.516 27.576
978.655 27.6208
979.304 2.14346
982.598 17.6991
983.536 40.4227
985.237 15.8992
988.202 533.427
989.437 245.373
990.365 82.9335
991.394 25.6795
992.144 11.4741
996.701 3.87639
997.465 6.47175
1000.456 439.569
1001.473 180.894
1002.397 96.1199
1003.250 11.8764
1003.972 18.2731
1005.436 39.79
1009.006 56.4618
1010.234 87.5171
1011.455 37.1994
1012.442 43.4874
1013.141 3.58772
1015.652 11.2326
1017.046 25.0213
1019.479 29.9042
1020.471 37.0133
1023.420 3.83304
1026.516 66.394
1027.173 35.0349
1028.439 35.5015
1029.756 24.2698
1030.634 7.82705
1031.278 22.3192
1032.677 5.57087
1037.491 2.4052
1038.588 27.6429
1040.644 17.0935
1041.580 44.5325
1042.799 41.2173
1044.704 1.87408
1047.588 9.6818
1050.371 36.5227
1051.737 10.0605
1059.369 202.652
1060.410 60.8354
1061.449 49.0904
1062.316 28.8885
1063.386 28.4368
1064.006 7.62278
1065.318 5.58667
1066.503 5.22765
1067.378 13.0014
1068.331 3.48864
1074.242 29.1362
1080.535 9.95769
1082.730 11.0386
1086.470 4.91154
1089.455 32.4599
1097.522 53.3686
1098.598 86.7484
1099.620 50.6904
1100.328 17.9185
1103.412 15.3078
1107.497 7.92955
1110.456 13.0061
1111.254 13.8489
1112.381 68.967
1113.606 34.2165
1115.491 956.931
1116.561 451.364
1117.437 108.559
1120.379 3.00339
1123.631 7.77794
1126.621 4.09942
1128.481 13.8561
1130.456 119.621
1131.432 48.9476
1132.531 84.8333
1133.535 20.4391
1134.401 9.85362
1137.090 7.82628
1138.567 29.1103
1140.256 14.4966
1144.297 20.7162
1148.510 6.35825
1149.210 18.2079
1151.164 28.858
1153.594 8.11886
1160.948 17.573
1162.903 8.21638
1170.347 23.3642
1171.417 17.048
1173.509 14.7867
1175.313 4.97112
1177.631 4.30163
1184.395 5.48757
1186.430 9.37344
1188.412 19.6084
1193.764 6.76504
1200.326 2.97826
1209.429 6.11332
1211.847 14.8901
1214.658 43.6251
1215.823 77.3249
1216.735 15.8942
1225.487 13.7064
1226.769 43.5908
1227.796 5.82624
1228.495 7.43559
1230.215 13.209
1231.127 9.46367
1231.737 2.08864
1268.655 14.0858
1290.390 5.17615
1314.358 16.1307
END IONS
